Time (ms),Raw ECG
0.01,0.00
8.00,0.28
16.00,0.92
24.00,1.07
32.01,0.72
40.00,0.74
48.00,0.77
56.00,0.32
64.01,-0.31
72.00,-0.50
80.00,0.03
88.00,0.64
96.00,0.70
104.01,0.47
112.01,0.46
120.00,0.48
128.01,0.36
136.00,0.07
144.00,-0.32
152.00,0.10
160.00,0.30
168.00,-0.47
176.01,-0.02
184.01,0.65
192.01,0.06
200.00,0.08
208.00,0.30
216.00,0.01
224.01,0.08
232.01,0.10
240.00,-0.03
248.01,0.02
256.01,-0.02
264.00,-0.35
272.00,-0.70
280.00,-0.25
288.01,0.23
296.01,-0.15
304.00,-0.18
312.01,0.00
320.00,-0.19
328.00,-0.16
336.00,-0.12
344.00,-0.22
352.01,-0.18
360.00,-0.20
368.01,-0.23
376.00,-0.22
384.01,-0.24
392.00,-0.25
400.01,-0.25
408.00,-0.27
416.00,-0.27
424.01,-0.28
432.00,-0.28
440.01,-0.01
448.01,0.35
456.01,-0.15
464.01,-0.64
472.00,-0.28
480.00,-0.27
488.01,-0.48
496.01,-0.30
504.01,-0.35
512.01,-0.40
520.00,-0.03
528.01,0.56
536.00,0.44
544.00,-0.52
552.01,-0.39
560.00,0.64
568.00,0.32
576.00,-0.41
584.01,0.25
592.01,0.40
600.01,-0.75
608.00,-0.57
616.00,0.54
624.01,0.14
632.00,-0.54
640.01,0.13
648.00,0.54
656.01,0.06
664.00,0.11
672.01,0.24
680.00,0.01
688.01,0.07
696.00,0.06
704.01,-0.04
712.01,-0.01
720.00,-0.05
728.00,-0.09
736.00,-0.09
744.00,-0.12
752.01,-0.14
760.01,-0.16
768.01,-0.18
776.00,-0.19
784.00,-0.21
792.00,-0.22
800.01,-0.23
808.00,-0.24
816.01,-0.26
824.01,-0.26
832.00,-0.27
840.01,-0.28
848.01,-0.00
856.01,0.35
864.00,-0.15
872.01,-0.65
880.01,-0.28
888.00,-0.28
896.00,-0.48
904.00,-0.30
912.01,-0.35
920.01,-0.40
928.01,-0.32
936.00,-0.36
944.01,-0.35
952.00,-0.32
960.01,-0.34
968.00,-0.05
976.00,0.60
984.01,0.47
992.01,-0.23
1000.00,0.29
1008.00,0.54
1016.00,-0.63
1024.01,-0.49
1032.01,0.38
1040.01,-0.11
1048.00,-0.23
1056.00,-0.17
1064.01,-0.80
1072.01,-0.56
1080.00,-0.04
1088.00,0.30
1096.00,0.64
1104.01,0.33
1112.01,15.41
1120.00,78.69
1128.01,167.45
1136.00,215.10
1144.00,235.33
1152.01,270.69
1160.00,332.38
1168.01,431.72
1176.01,497.90
1184.00,483.77
1192.01,462.07
1200.00,433.66
1208.01,364.11
1216.00,286.00
1224.00,184.60
1232.00,36.48
1240.00,-90.07
1248.01,-164.49
1256.00,-218.81
1264.00,-194.79
1272.00,-121.17
1280.01,-103.07
1288.00,-55.28
1296.00,17.11
1304.01,12.33
1312.00,19.77
1320.01,83.12
1328.00,130.35
1336.01,109.04
1344.01,9.44
1352.00,-101.91
1360.01,-206.52
1368.00,-349.38
1376.00,-478.57
1384.01,-415.23
1392.00,-213.59
1400.00,-256.78
1408.01,-459.29
1416.00,-349.61
1424.00,39.38
1432.00,322.88
1440.01,262.27
1448.00,116.20
1456.00,233.27
1464.01,342.76
1472.01,270.15
1480.00,225.99
1488.01,197.62
1496.00,84.15
1504.00,-158.41
1512.01,-481.75
1520.00,-651.63
1528.00,-536.67
1536.01,-259.95
1544.01,-3.34
1552.00,128.19
1560.00,155.42
1568.00,140.83
1576.01,129.13
1584.00,163.19
1592.01,169.52
1600.00,151.88
1608.00,197.81
1616.01,195.97
1624.01,138.84
1632.00,134.97
1640.01,120.95
1648.00,72.78
1656.01,2.75
1664.00,-111.14
1672.00,-238.30
1680.01,-473.94
1688.00,-796.41
1696.01,-876.00
1704.01,-756.16
1712.00,-688.59
1720.00,-548.83
1728.01,-413.59
1736.00,-497.55
1744.00,-596.80
1752.00,-547.92
1760.00,-472.92
1768.00,-439.56
1776.00,-411.14
1784.00,-384.78
1792.01,-388.80
1800.00,-422.28
1808.00,-415.69
1816.01,-359.14
1824.00,-335.27
1832.00,-318.09
1840.00,-279.44
1848.00,-258.90
1856.00,-235.57
1864.01,-205.40
1872.01,-185.13
1880.00,-161.97
1888.01,-138.56
1896.00,-118.86
1904.00,-97.60
1912.00,-77.74
1920.01,-59.27
1928.01,-40.24
1936.01,-22.46
1944.00,2.23
1952.00,37.86
1960.00,69.44
1968.01,103.70
1976.00,145.12
1984.00,174.88
1992.01,197.94
2000.00,206.35
2008.00,188.00
2016.00,152.97
2024.00,111.51
2032.01,115.08
2040.01,156.31
2048.01,177.48
2056.01,206.95
2064.00,217.81
2072.00,188.52
2080.01,184.58
2088.00,157.13
2096.01,113.31
2104.00,136.56
2112.00,154.55
2120.01,146.14
2128.01,161.52
2136.00,168.48
2144.00,169.16
2152.01,179.25
2160.01,182.73
2168.01,186.31
2176.01,192.17
2184.00,194.50
2192.00,198.50
2200.01,202.67
2208.01,204.53
2216.01,207.19
2224.01,209.14
2232.00,210.16
2240.00,212.02
2248.00,213.27
2256.01,213.78
2264.00,214.59
2272.00,214.80
2280.01,214.42
2288.00,213.94
2296.01,213.89
2304.01,213.81
2312.00,212.66
2320.01,210.50
2328.00,209.31
2336.00,208.66
2344.01,206.81
2352.01,204.50
2360.00,202.53
2368.00,200.03
2376.01,197.50
2384.00,194.78
2392.00,191.94
2400.00,189.09
2408.00,186.34
2416.01,182.56
2424.00,178.72
2432.01,175.63
2440.00,171.94
2448.00,168.00
2456.00,164.38
2464.01,160.42
2472.00,156.42
2480.01,152.47
2488.00,148.30
2496.00,144.13
2504.00,140.19
2512.00,136.22
2520.01,131.41
2528.00,133.02
2536.00,148.09
2544.00,146.38
2552.01,111.23
2560.01,96.08
2568.01,106.05
2576.01,97.06
2584.01,88.92
2592.00,90.30
2600.00,82.66
2608.00,78.11
2616.00,75.66
2624.00,82.14
2632.01,119.52
2640.00,157.92
2648.00,156.86
2656.00,106.19
2664.00,29.80
2672.00,7.13
2680.01,29.48
2688.01,18.86
2696.01,7.72
2704.01,13.13
2712.00,4.63
2720.00,1.31
2728.00,15.34
2736.01,48.96
2744.01,126.29
2752.00,274.46
2760.01,430.82
2768.00,513.25
2776.00,561.70
2784.00,597.68
2792.01,591.08
2800.01,576.12
2808.00,576.50
2816.01,563.14
2824.00,547.19
2832.00,523.78
2840.00,460.76
2848.01,404.69
2856.01,366.21
2864.00,313.72
2872.01,268.51
2880.00,228.89
2888.00,184.21
2896.01,145.60
2904.00,108.15
2912.01,70.37
2920.00,36.29
2928.01,2.73
2936.00,-29.50
2944.01,-59.48
2952.01,-88.72
2960.01,-116.34
2968.01,-142.41
2976.00,-167.39
2984.01,-190.94
2992.00,-213.20
3000.00,-234.22
3008.00,-253.84
3016.00,-271.78
3024.00,-289.22
3032.01,-305.84
3040.01,-321.25
3048.00,-335.44
3056.00,-348.72
3064.01,-360.94
3072.01,-372.16
3080.00,-382.53
3088.01,-391.84
3096.00,-400.44
3104.01,-408.16
3112.00,-414.84
3120.01,-420.69
3128.01,-425.88
3136.01,-430.38
3144.00,-433.97
3152.01,-437.03
3160.00,-439.28
3168.01,-440.91
3176.00,-441.81
3184.01,-442.06
3192.00,-441.91
3200.01,-440.91
3208.01,-439.63
3216.01,-437.59
3224.00,-435.22
3232.01,-432.22
3240.01,-428.91
3248.00,-424.97
3256.00,-420.72
3264.00,-416.03
3272.01,-410.91
3280.01,-405.34
3288.01,-399.59
3296.01,-393.50
3304.01,-387.03
3312.00,-380.16
3320.01,-373.03
3328.01,-365.84
3336.00,-358.22
3344.00,-350.38
3352.00,-342.41
3360.01,-334.13
3368.00,-325.72
3376.00,-317.03
3384.01,-308.31
3392.01,-299.44
3400.00,-290.34
3408.00,-281.13
3416.00,-271.84
3424.00,-262.50
3432.00,-253.47
3440.01,-244.28
3448.00,-234.13
3456.00,-223.91
3464.00,-214.53
3472.01,-204.88
3480.00,-195.00
3488.00,-185.22
3496.01,-175.53
3504.01,-165.81
3512.01,-156.34
3520.01,-146.63
3528.01,-137.81
3536.01,-128.44
3544.01,-117.72
3552.01,-108.19
3560.00,-100.25
3568.00,-91.19
3576.00,-80.70
3584.01,-70.48
3592.01,-62.06
3600.01,-53.77
3608.00,-44.30
3616.01,-35.05
3624.00,-27.28
3632.01,-19.27
3640.00,-10.64
3648.00,-2.45
3656.01,5.63
3664.01,13.77
3672.01,21.62
3680.01,29.07
3688.01,37.00
3696.00,45.23
3704.01,52.05
3712.01,58.20
3720.00,64.94
3728.01,72.27
3736.00,78.41
3744.00,84.89
3752.00,91.07
3760.01,97.20
3768.00,102.90
3776.01,108.56
3784.01,114.16
3792.00,119.46
3800.00,124.46
3808.01,129.54
3816.01,134.32
3824.00,138.93
3832.00,143.35
3840.01,147.61
3848.00,151.69
3856.01,155.48
3864.00,159.34
3872.00,162.78
3880.00,166.19
3888.00,169.28
3896.00,169.48
3904.01,155.55
3912.01,129.06
3920.00,122.23
3928.00,135.06
3936.00,136.22
3944.00,127.00
3952.01,101.14
3960.00,67.92
3968.01,90.70
3976.01,178.70
3984.01,208.36
3992.00,-73.58
4000.00,-589.67
4008.00,-497.47
4016.00,311.53
4024.00,539.69
4032.01,141.13
4040.01,95.97
4048.00,180.84
4056.00,157.47
4064.00,174.09
4072.00,140.09
4080.00,134.22
4088.00,135.75
4096.01,64.78
4104.00,28.59
4112.00,33.19
4120.00,52.31
4128.01,98.56
4136.00,109.87
4144.00,93.03
4152.01,97.03
4160.01,85.09
4168.00,80.72
4176.00,115.34
4184.00,138.69
4192.00,168.09
4200.00,210.84
4208.00,233.09
4216.00,254.63
4224.01,250.91
4232.00,223.28
4240.00,212.31
4248.00,165.91
4256.00,121.12
4264.00,138.28
4272.00,141.31
4280.01,142.88
4288.01,193.63
4296.01,247.09
4304.01,258.81
4312.00,218.25
4320.01,160.97
4328.00,120.31
4336.00,94.34
4344.00,99.69
4352.00,110.41
4360.00,73.22
4368.00,32.88
4376.00,5.50
4384.00,-48.28
4392.01,-80.47
4400.00,-58.06
4408.00,45.56
4416.00,202.28
4424.01,124.22
4432.00,-143.13
4440.01,-142.63
4448.00,140.13
4456.00,439.34
4464.01,422.16
4472.00,117.37
4480.01,140.97
4488.00,359.31
4496.01,352.53
4504.01,395.09
4512.01,581.25
4520.00,776.84
4528.00,878.81
4536.00,810.03
4544.01,741.88
4552.01,730.75
4560.01,678.97
4568.00,635.63
4576.00,608.81
4584.00,564.88
4592.00,529.53
4600.00,497.50
4608.01,460.16
4616.00,428.91
4624.01,397.03
4632.00,364.44
4640.00,335.41
4648.01,305.38
4656.01,276.13
4664.01,248.97
4672.01,221.44
4680.00,195.16
4688.00,169.98
4696.01,145.48
4704.00,121.80
4712.01,99.00
4720.00,76.56
4728.01,55.27
4736.01,34.70
4744.00,14.88
4752.01,-4.31
4760.00,-22.89
4768.00,-40.49
4776.00,-57.62
4784.00,-74.12
4792.00,-89.63
4800.00,-104.56
4808.00,-119.13
4816.00,-132.74
4824.00,-145.87
4832.00,-158.92
4840.00,-171.36
4848.01,-182.84
4856.01,-192.87
4864.01,-202.71
4872.00,-212.86
4880.00,-222.32
4888.00,-230.45
4896.00,-238.41
4904.01,-246.05
4912.01,-252.80
4920.01,-259.63
4928.00,-266.41
4936.00,-272.14
4944.00,-276.86
4952.00,-281.69
4960.00,-286.61
4968.00,-290.39
4976.01,-293.52
4984.00,-429.44
4992.00,-886.50
5000.00,-1305.63
5008.01,-1223.91
5016.01,-1048.08
5024.01,-1074.52
5032.00,-1008.31
5040.00,-918.72
5048.01,-903.11
5056.00,-836.47
5064.01,-781.20
5072.01,-748.23
5080.00,-691.17
5088.00,-648.11
5096.01,-608.11
5104.01,-561.48
5112.01,-522.98
5120.01,-483.75
5128.00,-444.11
5136.01,-408.67
5144.00,-372.53
5152.00,-337.95
5160.00,-305.56
5168.00,-273.50
5176.01,-242.86
5184.00,-213.50
5192.00,-185.30
5200.01,-158.16
5208.00,-132.05
5216.00,-107.00
5224.01,-82.96
5232.01,-60.09
5240.00,-38.10
5248.01,-16.87
5256.01,3.77
5264.00,22.84
5272.01,40.02
5280.01,57.25
5288.00,74.10
5296.00,89.40
5304.00,104.29
5312.00,118.84
5320.00,132.54
5328.01,145.21
5336.00,156.67
5344.00,167.57
5352.01,177.97
5360.00,187.43
5368.01,196.36
5376.01,204.93
5384.01,212.45
5392.00,219.70
5400.00,226.37
5408.01,264.88
5416.00,564.95
5424.00,1122.43
5432.00,1275.79
5440.01,1024.22
5448.00,1010.38
5456.01,1018.85
5464.00,888.45
5472.00,872.34
5480.01,831.24
5488.00,753.51
5496.01,728.59
5504.01,676.88
5512.01,625.65
5520.00,591.88
5528.00,544.66
5536.01,504.27
5544.00,467.93
5552.00,427.32
5560.00,391.69
5568.00,356.68
5576.01,321.54
5584.01,289.24
5592.00,257.69
5600.00,227.31
5608.00,198.49
5616.00,170.16
5624.01,143.06
5632.01,116.45
5640.01,91.02
5648.00,66.95
5656.01,43.42
5664.00,21.11
5672.00,-0.28
5680.00,-20.77
5688.00,-40.24
5696.00,-58.88
5704.01,-76.69
5712.00,-93.55
5720.00,-109.59
5728.00,-124.77
5736.01,-139.27
5744.00,-152.78
5752.00,-165.70
5760.01,-177.89
5768.01,-189.23
5776.01,-199.98
5784.00,-209.98
5792.00,-219.42
5800.01,-228.03
5808.00,-236.08
5816.01,-243.52
5824.00,-250.42
5832.01,-256.58
5840.00,-262.28
5848.00,-267.42
5856.00,-272.02
5864.00,-276.09
5872.00,-279.69
5880.00,-282.75
5888.01,-285.38
5896.00,-287.47
5904.00,-289.19
5912.00,-290.53
5920.00,-291.34
5928.00,-291.91
5936.00,-291.88
5944.01,-291.88
5952.01,-291.75
5960.01,-291.09
5968.01,-289.13
5976.00,-287.09
5984.00,-285.78
5992.00,-283.75
6000.00,-280.88
6008.01,-278.03
6016.00,-275.00
6024.00,-271.66
6032.01,-267.91
6040.00,-264.13
6048.00,-260.06
6056.01,-256.09
6064.00,-251.47
6072.01,-247.06
6080.01,-242.34
6088.01,-237.25
6096.00,-232.28
6104.01,-227.22
6112.00,-221.78
6120.00,-216.53
6128.01,-210.91
6136.00,-205.25
6144.01,-199.56
6152.01,-193.78
6160.00,-187.81
6168.00,-181.94
6176.00,-175.97
6184.00,-169.78
6192.00,-163.78
6200.00,-157.69
6208.00,-152.27
6216.01,-146.11
6224.01,-138.83
6232.01,-132.20
6240.00,-126.89
6248.01,-120.86
6256.00,-113.84
6264.00,-107.30
6272.00,-101.28
6280.00,-95.70
6288.00,-89.78
6296.00,-82.91
6304.01,-76.39
6312.01,-70.67
6320.01,-65.17
6328.00,-59.34
6336.01,-53.06
6344.01,-46.64
6352.01,-41.20
6360.00,-35.81
6368.00,-29.78
6376.00,-24.31
6384.01,-18.95
6392.01,-13.42
6400.01,-8.12
6408.00,-2.91
6416.01,2.33
6424.01,7.22
6432.01,12.01
6440.00,16.95
6448.00,21.80
6456.01,26.41
6464.00,31.16
6472.00,35.56
6480.00,39.97
6488.00,44.03
6496.00,48.24
6504.00,52.20
6512.01,56.06
6520.00,59.94
6528.01,63.83
6536.01,67.24
6544.00,70.91
6552.01,74.09
6560.00,77.42
6568.00,80.63
6576.01,83.73
6584.01,86.48
6592.00,89.24
6600.00,92.02
6608.01,94.57
6616.00,97.00
6624.00,99.33
6632.01,101.79
6640.00,103.66
6648.00,105.92
6656.01,107.83
6664.00,109.50
6672.00,111.57
6680.00,113.28
6688.00,114.38
6696.00,115.28
6704.00,117.22
6712.00,119.03
6720.00,119.98
6728.00,120.73
6736.00,121.16
6744.00,121.33
6752.01,121.67
6760.00,123.09
6768.00,123.53
6776.00,123.34
6784.01,123.87
6792.00,125.05
6800.01,124.62
6808.00,123.75
6816.00,123.94
6824.00,124.69
6832.00,124.47
6840.00,123.67
6848.00,123.56
6856.00,122.98
6864.00,122.36
6872.01,121.52
6880.00,120.28
6888.00,120.08
6896.01,119.72
6904.00,118.12
6912.01,116.75
6920.01,115.34
6928.01,114.37
6936.01,114.25
6944.00,113.28
6952.01,111.17
6960.01,109.25
6968.00,107.80
6976.01,107.55
6984.01,106.23
6992.00,104.27
7000.00,102.77
7008.00,101.12
7016.00,99.44
7024.01,97.70
7032.00,95.97
7040.01,93.55
7048.01,92.00
7056.01,89.94
7064.00,87.62
7072.00,86.12
7080.00,84.87
7088.01,82.47
7096.01,80.95
7104.01,79.52
7112.01,77.05
7120.00,74.97
7128.01,73.02
7136.01,70.17
7144.00,68.22
7152.00,66.86
7160.01,64.52
7168.01,62.52
7176.00,61.03
7184.00,57.78
7192.01,55.80
7200.01,54.61
7208.00,51.75
7216.01,49.17
7224.00,47.61
7232.00,45.53
7240.01,43.22
7248.00,41.44
7256.01,39.41
7264.00,37.41
7272.00,35.28
7280.01,33.53
7288.00,31.56
7296.01,29.50
7304.00,27.44
7312.01,25.64
7320.00,23.62
7328.00,21.62
7336.00,19.66
7344.00,17.95
7352.01,16.16
7360.01,14.38
7368.00,12.38
7376.00,10.53
7384.00,8.58
7392.00,6.05
7400.00,4.30
7408.00,2.84
7416.00,1.14
7424.01,-0.39
7432.00,-1.88
7440.00,-3.48
7448.00,-4.92
7456.00,-6.34
7464.00,-7.97
7472.00,-9.31
7480.01,-10.62
7488.01,-12.15
7496.01,-13.40
7504.01,-14.73
7512.00,-16.16
7520.00,-17.18
7528.00,-18.29
7536.01,-19.75
7544.00,-20.79
7552.00,-21.92
7560.00,-23.01
7568.00,-24.20
7576.01,-25.21
7584.00,-26.21
7592.00,-27.04
7600.00,-27.95
7608.01,-29.21
7616.00,-30.69
7624.01,-31.73
7632.00,-31.36
7640.00,-31.86
7648.01,-33.07
7656.00,-33.49
7664.01,-34.26
7672.00,-34.87
7680.01,-35.56
7688.01,-36.10
7696.01,-36.60
7704.00,-37.20
7712.00,-37.64
7720.01,-38.17
7728.00,-38.67
7736.01,-39.00
7744.00,-39.56
7752.01,-40.46
7760.01,-40.44
7768.01,-40.89
7776.00,-41.56
7784.01,-41.57
7792.00,-41.30
7800.00,-42.13
7808.01,-41.92
7816.00,-41.82
7824.00,-42.06
7832.00,-41.78
7840.00,-40.84
7848.00,-40.65
7856.01,-41.07
7864.00,-40.95
7872.01,-40.93
7880.00,-40.76
7888.01,-40.82
7896.00,-40.60
7904.00,-40.48
7912.01,-40.48
7920.00,-40.31
7928.00,-40.00
7936.01,-39.80
7944.00,-39.57
7952.00,-39.32
7960.00,-39.06
7968.00,-38.77
7976.01,-38.47
7984.00,-37.89
7992.00,-37.68
8000.00,-37.57
8008.01,-38.07
8016.00,-37.67
8024.01,-53.11
8032.00,-236.61
8040.01,-697.50
8048.00,-1027.61
8056.01,-917.22
8064.01,-785.22
8072.00,-794.84
8080.00,-716.53
8088.00,-645.38
8096.00,-618.53
8104.01,-551.68
8112.00,-503.13
8120.00,-463.67
8128.00,-409.42
8136.00,-368.43
8144.01,-327.37
8152.00,-283.74
8160.01,-246.77
8168.01,-208.83
8176.00,-171.99
8184.01,-138.73
8192.01,-105.51
8200.00,-74.35
8208.00,-44.48
8216.00,-14.91
8224.00,12.24
8232.00,38.38
8240.00,63.36
8248.00,87.00
8256.00,109.22
8264.00,130.09
8272.01,150.08
8280.01,168.75
8288.00,186.11
8296.01,202.23
8304.00,218.31
8312.00,233.34
8320.01,246.44
8328.00,259.11
8336.00,270.77
8344.00,281.16
8352.00,291.58
8360.01,300.42
8368.00,308.22
8376.00,315.19
8384.00,322.66
8392.01,328.81
8400.01,333.66
8408.00,338.13
8416.01,341.91
8424.00,344.94
8432.00,347.44
8440.00,349.44
8448.01,350.31
8456.01,350.44
8464.00,350.78
8472.01,351.19
8480.00,349.72
8488.00,348.31
8496.01,347.59
8504.00,344.81
8512.01,341.59
8520.00,339.78
8528.00,335.78
8536.00,331.31
8544.00,327.84
8552.01,323.28
8560.00,318.56
8568.01,314.63
8576.01,309.03
8584.00,302.66
8592.00,297.16
8600.01,290.84
8608.01,283.97
8616.00,278.16
8624.00,272.16
8632.00,265.25
8640.01,257.75
8648.01,249.78
8656.00,242.53
8664.00,236.00
8672.00,228.31
8680.01,219.69
8688.01,212.19
8696.00,204.59
8704.00,196.47
8712.01,189.08
8720.00,180.88
8728.00,172.47
8736.01,164.61
8744.00,156.31
8752.00,148.13
8760.00,140.02
8768.00,131.77
8776.00,123.53
8784.01,115.48
8792.00,107.34
8800.01,99.28
8808.00,91.30
8816.00,83.22
8824.00,75.41
8832.00,69.75
8840.01,77.16
8848.01,95.10
8856.01,92.96
8864.00,76.81
8872.01,78.04
8880.00,79.23
8888.00,70.63
8896.01,67.70
8904.00,74.50
8912.01,102.24
8920.00,137.78
8928.00,162.46
8936.00,198.02
8944.00,230.34
8952.01,208.31
8960.01,147.50
8968.00,118.22
8976.01,130.45
8984.00,105.36
8992.00,56.21
9000.00,50.18
9008.01,15.63
9016.01,-65.65
9024.00,-114.01
9032.00,-121.38
9040.00,-91.98
9048.01,-44.28
9056.00,-27.32
9064.00,-39.67
9072.00,-37.63
9080.00,-11.84
9088.01,17.23
9096.00,15.75
9104.00,-12.28
9112.01,12.38
9120.00,-115.00
9128.01,-515.23
9136.01,-634.38
9144.01,-323.14
9152.01,-36.27
9160.01,-22.08
9168.00,-274.56
9176.00,-361.66
9184.01,-217.53
9192.00,-258.44
9200.01,-342.34
9208.00,-328.75
9216.01,-367.03
9224.01,-412.41
9232.00,-465.91
9240.00,-545.53
9248.00,-539.56
9256.01,-491.38
9264.00,-491.97
9272.01,-479.22
9280.00,-452.69
9288.01,-374.31
9296.00,-133.25
9304.00,122.16
9312.00,159.38
9320.00,6.59
9328.00,-29.75
9336.01,185.97
9344.00,299.16
9352.00,252.13
9360.01,331.34
9368.00,372.97
9376.00,273.81
9384.00,243.41
9392.00,228.09
9400.00,168.56
9408.00,144.47
9416.00,115.53
9424.00,75.41
9432.00,52.47
9440.01,22.84
9448.01,-6.38
9456.01,-28.97
9464.00,-54.69
9472.01,-94.56
9480.00,-222.50
9488.00,-478.81
9496.00,-722.16
9504.01,-811.13
9512.01,-795.41
9520.00,-755.75
9528.00,-675.94
9536.00,-578.63
9544.00,-515.72
9552.01,-468.88
9560.01,-483.34
9568.01,-567.28
9576.01,-578.31
9584.00,-538.66
9592.01,-574.00
9600.00,-608.00
9608.01,-569.69
9616.00,-524.78
9624.00,-502.72
9632.00,-498.41
9640.01,-485.50
9648.00,-396.16
9656.00,-311.78
9664.00,-432.47
9672.00,-607.97
9680.00,-539.13
9688.00,-241.84
9696.00,95.87
9704.01,58.53
9712.01,-289.06
9720.00,-310.03
9728.01,-203.00
9736.00,-278.66
9744.01,-242.09
9752.01,-185.56
9760.00,-230.22
9768.01,-222.25
9776.00,-200.22
9784.00,-210.09
9792.00,-218.34
9800.01,-213.39
9808.00,-188.53
9816.01,-180.27
9824.00,-176.88
9832.00,-144.05
9840.01,-116.75
9848.01,-99.06
9856.00,-72.62
9864.01,-51.11
9872.01,-31.54
9880.01,-9.45
9888.00,9.05
9896.00,27.05
9904.00,46.34
9912.01,63.60
9920.01,79.94
9928.00,95.92
9936.01,111.09
9944.01,125.48
9952.00,139.38
9960.01,152.50
9968.01,164.93
9976.01,176.62
9984.01,187.17
9992.00,198.05
10000.01,209.07
10008.00,218.69
10016.01,227.21
10024.01,235.50
10032.00,242.70
10040.00,249.78
10048.01,257.02
10056.01,263.25
10064.01,269.28
10072.01,275.41
10080.00,280.36
10088.00,284.22
10096.01,287.92
10104.01,291.66
10112.01,294.86
10120.01,297.45
10128.01,299.81
10136.01,302.00
10144.00,303.94
10152.00,304.92
10160.01,305.61
10168.01,306.25
10176.00,306.09
10184.00,305.50
10192.01,305.56
10200.01,305.28
10208.00,303.72
10216.01,302.47
10224.01,301.00
10232.01,298.69
10240.00,296.28
10248.00,294.34
10256.01,300.09
10264.00,352.41
10272.00,458.56
10280.01,505.63
10288.01,446.44
10296.01,387.00
10304.00,348.47
10312.01,290.19
10320.01,239.91
10328.00,208.22
10336.00,191.84
10344.00,192.44
10352.01,191.66
10360.00,192.16
10368.00,193.38
10376.01,180.94
10384.00,172.63
10392.00,175.63
10400.00,171.75
10408.00,177.69
10416.00,211.03
10424.01,228.63
10432.00,198.47
10440.00,165.75
10448.01,151.66
10456.00,131.44
10464.01,121.09
10472.01,125.00
10480.00,119.09
10488.01,112.94
10496.01,111.12
10504.01,105.37
10512.00,101.55
10520.00,98.30
10528.01,93.28
10536.00,89.84
10544.00,86.14
10552.01,81.16
10560.00,76.69
10568.01,72.86
10576.01,68.58
10584.01,64.53
10592.01,60.77
10600.01,56.03
10608.00,51.31
10616.00,47.55
10624.01,43.33
10632.01,50.80
10640.00,61.95
10648.00,37.17
10656.01,12.23
10664.00,98.52
10672.00,258.48
10680.00,203.19
10688.00,-44.75
10696.01,-73.36
10704.00,12.53
10712.00,-40.14
10720.00,-46.74
10728.01,-6.81
10736.00,6.10
10744.00,64.27
10752.01,106.22
10760.00,117.27
10768.00,162.80
10776.00,222.53
10784.00,252.46
10792.00,242.09
10800.00,206.95
10808.00,167.56
10816.01,132.56
10824.00,116.36
10832.00,118.25
10840.01,111.72
10848.01,102.42
10856.01,88.33
10864.00,58.81
10872.01,37.49
10880.01,20.15
10888.01,8.05
10896.01,-0.23
10904.01,-27.72
10912.01,-53.95
10920.01,-66.22
10928.00,-65.21
10936.01,-63.12
10944.00,-89.16
10952.01,-113.89
10960.00,-97.06
10968.00,-62.38
10976.00,-52.81
10984.01,-60.94
10992.00,-54.27
11000.00,-50.39
11008.01,-80.34
11016.00,-134.52
11024.00,-193.69
11032.01,-248.08
11040.00,-279.45
11048.00,-249.55
11056.01,-196.52
11064.00,-205.33
11072.00,-223.06
11080.00,-202.39
11088.01,-192.53
11096.01,-186.19
11104.00,-178.78
11112.01,-158.23
11120.01,-85.67
11128.01,-127.69
11136.01,-458.72
11144.01,-746.08
11152.01,-472.72
11160.01,149.03
11168.00,321.66
11176.00,25.31
11184.00,-59.09
11192.00,73.31
11200.00,90.31
11208.00,53.06
11216.01,27.28
11224.00,-53.00
11232.00,-155.78
11240.01,-223.53
11248.01,-315.69
11256.00,-429.81
11264.01,-498.16
11272.01,-524.66
11280.00,-452.91
11288.00,-303.97
11296.00,-218.31
11304.01,-162.94
11312.00,-123.19
11320.01,-144.13
11328.00,-124.03
11336.00,-50.28
11344.01,-6.06
11352.01,18.75
11360.00,28.84
11368.01,-21.34
11376.01,-118.97
11384.00,-197.81
11392.01,-238.84
11400.00,-267.31
11408.01,-305.28
11416.00,-346.22
11424.01,-351.81
11432.01,-332.47
11440.00,-347.31
11448.00,-370.88
11456.00,-341.16
11464.01,-301.16
11472.00,-297.72
11480.01,-293.97
11488.00,-267.66
11496.01,-245.84
11504.00,-250.41
11512.01,-277.34
11520.01,-330.94
11528.00,-383.34
11536.00,-357.75
11544.00,-291.09
11552.00,-278.83
11560.01,-284.48
11568.00,-263.13
11576.01,-246.69
11584.00,-243.77
11592.00,-229.00
11600.00,-158.14
11608.00,-17.94
11616.00,-27.30
11624.01,-337.50
11632.01,-535.91
11640.01,-172.00
11648.01,442.75
11656.00,494.03
11664.00,98.50
11672.00,53.32
11680.00,146.34
11688.00,90.33
11696.00,141.38
11704.00,185.62
11712.00,175.40
11720.00,207.22
11728.00,200.43
11736.00,158.13
11744.01,124.04
11752.01,104.82
11760.01,81.09
11768.01,-15.18
11776.01,-170.18
11784.00,-302.53
11792.01,-382.31
11800.00,-388.72
11808.00,-340.64
11816.00,-304.00
11824.01,-278.80
11832.00,-243.21
11840.01,-212.52
11848.00,-185.09
11856.01,-154.44
11864.01,-127.52
11872.00,-101.90
11880.00,-63.45
11888.01,89.39
11896.00,406.13
11904.00,681.85
11912.00,829.56
11920.01,901.23
11928.01,842.53
11936.00,773.38
11944.01,766.56
11952.01,718.34
11960.00,675.17
11968.00,653.38
11976.00,610.91
11984.00,579.16
11992.01,551.03
12000.00,516.33
12008.00,488.23
12016.00,459.69
12024.01,430.39
12032.01,404.48
12040.01,378.03
12048.01,352.30
12056.00,298.06
12064.00,230.69
12072.01,249.98
12080.01,148.03
12088.01,-355.19
12096.01,-612.94
12104.01,-22.94
12112.01,463.19
12120.01,258.05
12128.00,130.20
12136.01,143.58
12144.01,16.02
12152.00,-20.80
12160.01,-48.78
12168.00,-123.00
12176.01,-130.76
12184.00,-157.71
12192.00,-196.00
12200.01,-206.20
12208.01,-204.38
12216.00,-164.53
12224.00,-133.08
12232.00,-142.64
12240.01,-140.05
12248.00,-110.25
12256.00,-91.92
12264.00,-102.59
12272.01,-99.98
12280.00,-80.43
12288.01,-88.19
12296.01,-79.37
12304.00,-32.23
12312.01,-12.27
12320.01,-10.50
12328.01,5.94
12336.00,21.17
12344.00,38.36
12352.01,51.64
12360.01,53.34
12368.00,72.39
12376.00,95.55
12384.00,90.52
12392.01,87.14
12400.00,101.91
12408.01,115.34
12416.01,114.93
12424.01,92.95
12432.01,49.35
12440.00,-0.34
12448.01,3.02
12456.00,65.57
12464.01,85.66
12472.01,50.31
12480.00,21.90
12488.00,-2.28
12496.00,-12.96
12504.00,7.65
12512.00,35.91
12520.00,95.81
12528.01,187.09
12536.01,34.57
12544.01,-500.01
12552.01,-637.56
12560.01,50.26
12568.00,419.50
12576.00,130.81
12584.01,88.68
12592.01,145.73
12600.01,37.61
12608.00,45.32
12616.00,44.67
12624.00,-3.38
12632.00,-15.01
12640.00,-48.79
12648.00,-105.83
12656.00,-186.43
12664.00,-317.94
12672.01,-492.15
12680.01,-555.31
12688.00,-449.57
12696.00,-308.79
12704.00,-165.28
12712.00,-74.63
12720.00,-108.46
12728.00,-183.71
12736.00,-218.67
12744.01,-177.33
12752.00,-46.79
12760.00,66.56
12768.01,-22.13
12776.01,-283.52
12784.00,-406.42
12792.00,-316.87
12800.01,-233.43
12808.00,-125.30
12816.00,85.99
12824.00,213.50
12832.00,169.32
12840.00,62.70
12848.01,-80.77
12856.00,-298.85
12864.00,-379.37
12872.01,-171.14
12880.00,-33.66
12888.00,-61.64
12896.00,-13.49
12904.00,-35.48
12912.00,-94.05
12920.01,-10.64
12928.00,55.59
12936.00,112.09
12944.01,199.88
12952.01,229.09
12960.00,316.29
12968.01,497.19
12976.00,598.31
12984.00,428.09
12992.00,-71.01
13000.00,-197.95
13008.00,479.95
13016.00,751.19
13024.01,349.01
13032.00,323.71
13040.00,364.44
13048.01,214.61
13056.01,236.09
13064.01,218.14
13072.01,153.23
13080.00,78.30
13088.00,-111.63
13096.01,-268.42
13104.00,-376.06
13112.00,-509.00
13120.00,-546.80
13128.01,-433.23
13136.01,-268.91
13144.01,-106.37
13152.00,25.44
13160.01,82.39
13168.01,96.95
13176.00,107.81
13184.01,83.76
13192.01,45.00
13200.00,55.50
13208.01,74.08
13216.00,52.70
13224.01,40.57
13232.01,49.34
13240.00,42.15
13248.00,33.01
13256.00,24.14
13264.00,5.36
13272.00,17.87
13280.00,50.33
13288.01,46.39
13296.00,28.68
13304.00,20.73
13312.01,-4.09
13320.00,-46.18
13328.00,-74.64
13336.00,-59.96
13344.00,-43.95
13352.00,-85.84
13360.01,-124.08
13368.01,-131.38
13376.01,-148.46
13384.01,-135.45
13392.00,-87.84
13400.00,7.55
13408.00,176.44
13416.00,186.78
13424.01,-112.51
13432.00,-340.05
13440.01,-46.11
13448.00,495.33
13456.00,497.02
13464.00,102.51
13472.01,55.76
13480.00,109.60
13488.00,-27.95
13496.01,-99.77
13504.01,-158.72
13512.00,-247.15
13520.01,-254.69
13528.01,-223.99
13536.00,-203.48
13544.00,-185.18
13552.00,-164.91
13560.01,-146.48
13568.01,-129.50
13576.00,-112.31
13584.00,-96.20
13592.00,-81.08
13600.00,-54.24
13608.00,16.98
13616.01,119.48
13624.00,166.77
13632.00,158.45
13640.00,188.68
13648.00,238.59
13656.00,247.61
13664.00,243.35
13672.00,231.22
13680.00,212.80
13688.00,219.65
13696.01,194.16
13704.01,126.10
13712.00,105.51
13720.00,93.91
13728.01,55.98
13736.00,64.80
13744.00,86.22
13752.00,62.37
13760.00,56.85
13768.00,95.12
13776.01,118.39
13784.00,116.98
13792.01,131.63
13800.00,151.25
13808.00,141.64
13816.01,114.06
13824.01,117.00
13832.01,219.38
13840.00,312.61
13848.01,102.08
13856.00,-220.55
13864.00,-157.36
13872.00,104.66
13880.00,125.47
13888.00,-66.31
13896.00,-195.87
13904.01,-149.67
13912.00,-115.30
13920.01,-139.02
13928.00,-87.01
13936.01,29.75
13944.00,174.86
13952.01,301.39
13960.00,379.95
13968.00,413.68
13976.00,386.24
13984.01,357.76
13992.00,351.84
14000.01,316.38
14008.00,262.08
14016.00,217.51
14024.00,177.58
14032.01,130.80
14040.00,90.48
14048.01,71.32
14056.00,27.80
14064.01,-70.79
14072.00,-194.45
14080.01,-308.24
14088.01,-336.21
14096.00,-273.43
14104.00,-225.87
14112.00,-165.73
14120.00,-59.30
14128.00,-7.87
14136.01,-1.08
14144.00,45.75
14152.01,143.70
14160.00,265.52
14168.00,361.23
14176.01,409.27
14184.01,427.37
14192.00,424.94
14200.01,403.32
14208.01,358.71
14216.00,288.12
14224.00,191.60
14232.01,67.84
14240.00,-62.80
14248.01,-187.58
14256.01,-294.28
14264.00,-353.06
14272.00,-494.16
14280.01,-744.59
14288.00,-749.22
14296.01,-331.42
14304.01,186.94
14312.01,248.41
14320.01,6.28
14328.00,135.38
14336.01,294.19
14344.00,160.69
14352.01,142.98
14360.01,155.42
14368.00,85.86
14376.01,79.83
14384.01,60.52
14392.01,22.30
14400.00,8.86
14408.00,-17.56
14416.01,-36.23
14424.00,-46.09
14432.00,-70.19
14440.01,-87.06
14448.01,-99.91
14456.00,-117.97
14464.01,-131.28
14472.00,-144.03
14480.01,-157.94
14488.00,-168.78
14496.00,-179.97
14504.00,-190.44
14512.00,-199.63
14520.00,-208.47
14528.00,-216.91
14536.01,-224.41
14544.01,-235.50
14552.01,-260.31
14560.00,-290.72
14568.01,-304.94
14576.01,-303.84
14584.01,-308.06
14592.01,-337.22
14600.01,-373.72
14608.01,-398.22
14616.00,-403.41
14624.00,-342.84
14632.00,-268.66
14640.01,-262.84
14648.00,-261.19
14656.00,-245.91
14664.01,-259.91
14672.01,-272.53
14680.00,-261.47
14688.01,-227.44
14696.01,-185.38
14704.00,-302.16
14712.01,-744.91
14720.01,-923.38
14728.00,-294.16
14736.00,112.56
14744.01,-150.34
14752.01,-134.94
14760.01,-19.56
14768.00,-131.38
14776.00,-93.78
14784.01,-85.91
14792.01,-182.78
14800.01,-205.31
14808.01,-228.06
14816.00,-255.22
14824.01,-288.66
14832.01,-372.03
14840.00,-421.88
14848.01,-394.61
14856.00,-368.89
14864.00,-349.41
14872.00,-287.67
14880.01,-240.58
14888.01,-237.09
14896.00,-266.66
14904.01,-321.47
14912.00,-319.20
14920.01,-259.77
14928.01,-214.41
14936.01,-175.52
14944.01,-141.91
14952.01,-134.81
14960.00,-135.65
14968.00,-127.13
14976.01,-130.07
14984.00,-139.50
14992.01,-117.17
15000.00,-57.43
15008.00,49.59
15016.00,195.43
15024.00,356.03
15032.01,484.36
15040.00,480.71
15048.00,422.84
15056.00,431.04
15064.01,421.94
15072.00,391.87
15080.00,390.63
15088.00,375.41
15096.00,358.49
15104.01,351.93
15112.00,337.27
15120.01,325.40
15128.00,316.19
15136.01,303.70
15144.01,293.77
15152.00,283.96
15160.00,273.29
15168.00,264.14
15176.00,254.63
15184.01,245.13
15192.01,236.78
15200.00,228.31
15208.00,219.99
15216.01,211.95
15224.00,204.03
15232.01,196.53
15240.01,189.16
15248.01,182.19
15256.01,175.25
15264.01,168.67
15272.01,162.14
15280.01,155.75
15288.01,149.86
15296.00,144.25
15304.01,138.42
15312.01,133.38
15320.00,128.19
15328.00,121.78
15336.01,116.66
15344.00,112.31
15352.01,107.48
15360.01,103.42
15368.00,99.36
15376.01,94.36
15384.01,90.34
15392.00,86.00
15400.00,81.66
15408.00,78.14
15416.01,74.97
15424.01,70.97
15432.01,67.86
15440.00,64.64
15448.01,61.20
15456.00,57.39
15464.01,54.41
15472.01,51.89
15480.00,49.30
15488.01,46.73
15496.01,-31.70
15504.01,-377.64
15512.00,-846.80
15520.00,-932.83
15528.01,-750.50
15536.01,-726.67
15544.01,-702.56
15552.00,-605.48
15560.00,-576.45
15568.01,-529.28
15576.00,-466.27
15584.00,-432.89
15592.00,-384.28
15600.00,-338.42
15608.01,-302.66
15616.01,-259.58
15624.00,-222.16
15632.00,-187.06
15640.00,-151.00
15648.00,-118.67
15656.00,-86.73
15664.00,-56.23
15672.00,-28.03
15680.01,0.45
15688.01,27.37
15696.00,51.97
15704.00,76.03
15712.01,98.50
15720.00,119.28
15728.00,139.75
15736.00,158.94
15744.01,176.69
15752.00,193.84
15760.00,209.59
15768.00,224.38
15776.00,238.13
15784.00,251.09
15792.00,262.91
15800.01,274.13
15808.01,284.13
15816.00,293.31
15824.01,301.72
15832.01,309.38
15840.00,316.22
15848.01,322.28
15856.01,327.50
15864.00,332.06
15872.01,336.00
15880.01,339.34
15888.00,341.81
15896.00,343.84
15904.00,345.19
15912.00,346.09
15920.01,346.28
15928.00,346.00
15936.01,345.25
15944.00,344.03
15952.00,342.22
15960.00,339.97
15968.00,337.31
15976.00,334.31
15984.01,330.94
15992.00,327.06
16000.00,322.94
16008.01,318.44
16016.00,313.47
16024.00,308.44
16032.00,302.91
16040.00,296.81
16048.00,290.59
16056.01,284.94
16064.01,279.00
16072.01,271.97
16080.01,265.16
16088.01,258.38
16096.01,250.84
16104.01,243.94
16112.01,237.06
16120.00,229.19
16128.01,220.78
16136.00,213.03
16144.00,205.00
16152.01,196.63
16160.00,189.50
16168.01,181.66
16176.01,172.44
16184.01,164.03
16192.00,156.00
16200.00,147.56
16208.00,139.41
16216.00,131.25
16224.00,122.25
16232.01,114.03
16240.01,105.72
16248.00,96.86
16256.01,88.89
16264.01,80.91
16272.00,72.52
16280.00,64.64
16288.01,56.95
16296.01,49.27
16304.01,41.36
16312.01,33.48
16320.00,25.94
16328.00,18.59
16336.00,11.39
16344.00,3.92
16352.01,-3.86
16360.00,-11.48
16368.01,-18.77
16376.01,-25.41
16384.01,-32.16
16392.00,-38.91
16400.00,-45.27
16408.01,-51.69
16416.00,-57.96
16424.00,-63.67
16432.00,-69.26
16440.01,-75.27
16448.00,-80.75
16456.01,-85.73
16464.00,-91.40
16472.00,-96.78
16480.00,-101.60
16488.00,-106.69
16496.01,-111.71
16504.00,-116.87
16512.00,-121.59
16520.00,-125.46
16528.00,-129.62
16536.00,-133.65
16544.00,-137.23
16552.00,-140.58
16560.00,-143.70
16568.01,-147.09
16576.01,-150.14
16584.00,-152.86
16592.00,-156.30
16600.00,-158.64
16608.00,-160.41
16616.00,-163.31
16624.00,-165.55
16632.01,-167.33
16640.01,-169.80
16648.00,-172.09
16656.01,-173.78
16664.00,-175.00
16672.00,-176.28
16680.00,-177.47
16688.00,-178.36
16696.00,-179.19
16704.01,-179.92
16712.00,-180.44
16720.01,-180.83
16728.00,-181.13
16736.00,-181.30
16744.01,-181.30
16752.00,-181.19
16760.00,-180.94
16768.00,-180.69
16776.00,-180.16
16784.00,-179.56
16792.01,-178.91
16800.01,-178.09
16808.01,-177.16
16816.00,-176.16
16824.01,-175.03
16832.00,-173.75
16840.00,-172.47
16848.00,-171.09
16856.01,-169.53
16864.01,-167.91
16872.00,-166.22
16880.01,-164.53
16888.01,-162.66
16896.01,-160.69
16904.00,-158.69
16912.00,-156.59
16920.00,-154.41
16928.01,-152.22
16936.00,-149.91
16944.01,-147.63
16952.00,-145.16
16960.01,-142.38
16968.01,-139.56
16976.00,-137.44
16984.00,-135.28
16992.00,-132.03
17000.00,-128.88
17008.00,-126.78
17016.01,-124.06
17024.00,-120.31
17032.00,-117.59
17040.01,-115.87
17048.00,-112.91
17056.00,-109.34
17064.00,-106.19
17072.00,-103.41
17080.00,-100.37
17088.00,-97.56
17096.01,-95.00
17104.01,-91.72
17112.00,-88.25
17120.01,-85.06
17128.00,-82.03
17136.00,-78.81
17144.00,-75.28
17152.00,-72.75
17160.00,-70.52
17168.00,-67.34
17176.00,-64.16
17184.00,-61.16
17192.00,-57.83
17200.00,-54.38
17208.00,-51.86
17216.00,-49.33
17224.01,-45.97
17232.00,-42.73
17240.00,-39.31
17248.01,-35.81
17256.00,252.22
17264.01,904.13
17272.00,1058.55
17280.01,708.53
17288.00,734.20
17296.00,765.42
17304.00,592.36
17312.01,603.55
17320.01,563.84
17328.01,472.39
17336.01,463.59
17344.00,408.30
17352.00,356.98
17360.00,331.34
17368.01,283.36
17376.00,246.86
17384.01,215.47
17392.01,176.95
17400.01,146.27
17408.01,115.78
17416.00,84.77
17424.00,58.05
17432.00,30.66
17440.00,4.81
17448.01,-18.44
17456.01,-42.06
17464.01,-64.09
17472.00,-84.28
17480.01,-104.12
17488.00,-122.28
17496.00,-139.44
17504.00,-155.78
17512.00,-170.81
17520.01,-184.91
17528.01,-198.09
17536.00,-210.22
17544.01,-221.59
17552.01,-232.00
17560.00,-241.34
17568.00,-250.06
17576.01,-257.88
17584.01,-264.88
17592.00,-271.19
17600.00,-276.75
17608.01,-281.56
17616.00,-285.66
17624.00,-289.13
17632.00,-292.00
17640.01,-294.22
17648.00,-295.81
17656.00,-296.84
17664.01,-297.38
17672.01,-297.34
17680.01,-296.81
17688.00,-295.84
17696.01,-294.25
17704.01,-292.47
17712.00,-290.06
17720.00,-287.47
17728.01,-284.25
17736.00,-280.75
17744.01,-276.94
17752.00,-272.75
17760.00,-268.34
17768.01,-263.47
17776.01,-258.53
17784.00,-253.16
17792.01,-247.50
17800.01,-241.72
17808.01,-235.78
17816.00,-229.50
17824.01,-223.06
17832.01,-216.56
17840.01,-209.75
17848.00,-203.00
17856.01,-195.94
17864.01,-188.75
17872.00,-181.55
17880.00,-174.20
17888.00,-166.77
17896.00,-159.23
17904.01,-151.64
17912.00,-143.97
17920.01,-136.39
17928.00,-128.64
17936.00,-121.09
17944.00,-113.22
17952.00,-105.53
17960.00,-97.72
17968.01,-89.95
17976.01,-82.28
17984.00,-74.83
17992.01,-67.11
18000.00,-59.98
18008.00,-52.72
18016.00,-44.66
18024.00,-37.11
18032.01,-30.56
18040.00,-22.86
18048.01,-15.04
18056.01,-8.61
18064.01,-1.79
18072.00,5.14
18080.00,11.82
18088.00,17.99
18096.00,24.90
18104.00,31.55
18112.00,38.43
18120.01,44.77
18128.01,50.22
18136.00,55.91
18144.00,61.83
18152.00,67.60
18160.00,73.10
18168.01,78.81
18176.01,84.25
18184.01,89.52
18192.00,94.27
18200.00,98.64
18208.00,103.72
18216.00,108.13
18224.00,112.27
18232.00,116.90
18240.00,120.87
18248.00,125.06
18256.00,128.58
18264.00,132.19
18272.01,135.81
18280.01,139.14
18288.01,142.31
18296.00,145.33
18304.01,148.20
18312.00,150.81
18320.01,153.41
18328.00,155.59
18336.00,158.00
18344.00,160.16
18352.01,162.05
18360.00,163.81
18368.00,165.31
18376.01,166.92
18384.00,168.27
18392.00,169.36
18400.01,170.19
18408.01,170.78
18416.00,171.91
18424.00,172.88
18432.01,172.56
18440.01,172.97
18448.00,173.69
18456.00,173.34
18464.00,174.22
18472.00,174.50
18480.00,173.41
18488.01,172.66
18496.01,172.09
18504.01,171.63
18512.01,171.16
18520.00,170.19
18528.01,169.31
18536.00,168.41
18544.00,167.19
18552.01,166.03
18560.01,164.94
18568.01,163.56
18576.01,162.06
18584.00,160.53
18592.01,158.88
18600.00,156.75
18608.01,154.31
18616.00,79.84
18624.00,-208.28
18632.00,-576.34
18640.01,-709.44
18648.00,-684.81
18656.00,-661.91
18664.00,-538.84
18672.00,-302.56
18680.00,-76.62
18688.01,20.91
18696.01,156.34
18704.01,479.19
18712.01,592.44
18720.00,458.09
18728.00,469.78
18736.01,489.66
18744.00,427.34
18752.01,376.03
18760.01,191.28
18768.01,73.47
18776.00,243.63
18784.00,396.63
18792.01,402.53
18800.00,399.91
18808.00,379.72
18816.01,356.88
18824.01,352.97
18832.01,332.88
18840.00,317.06
18848.01,306.72
18856.00,289.63
18864.01,276.81
18872.01,264.31
18880.00,249.50
18888.01,237.56
18896.01,224.56
18904.00,212.06
18912.00,200.06
18920.01,188.03
18928.01,176.31
18936.00,165.00
18944.01,154.03
18952.00,143.03
18960.01,132.41
18968.00,122.19
18976.00,112.05
18984.00,102.02
18992.00,92.41
19000.01,83.12
19008.00,73.75
19016.01,64.86
19024.01,56.22
19032.00,47.72
19040.00,39.50
19048.01,31.62
19056.01,23.89
19064.01,16.17
19072.01,8.92
19080.00,1.70
19088.00,-4.97
19096.01,-11.55
19104.00,-18.25
19112.00,-24.31
19120.01,-30.48
19128.01,-36.15
19136.00,-41.68
19144.01,-47.22
19152.00,-52.74
19160.00,-58.36
19168.01,-63.36
19176.01,-67.45
19184.00,-71.07
19192.00,-75.57
19200.01,-80.31
19208.00,-84.54
19216.01,-87.38
19224.00,-90.36
19232.00,-93.98
19240.00,-97.73
19248.00,-100.34
19256.00,-103.46
19264.00,-106.46
19272.00,-108.72
19280.00,-110.98
19288.00,-113.64
19296.01,-115.17
19304.01,-117.10
19312.00,-119.04
19320.00,-120.51
19328.01,-121.86
19336.01,-123.23
19344.01,-124.39
19352.00,-165.32
19360.00,-300.99
19368.01,-448.91
19376.01,-496.63
19384.01,-524.52
19392.01,-610.42
19400.00,-664.94
19408.01,-679.40
19416.00,-763.40
19424.00,-866.83
19432.01,-829.64
19440.01,-726.76
19448.00,-695.37
19456.01,-653.63
19464.00,-586.52
19472.01,-550.93
19480.00,-504.67
19488.00,-413.34
19496.01,-251.48
19504.00,-97.39
19512.00,-43.77
19520.00,10.73
19528.00,94.57
19536.00,122.90
19544.00,116.99
19552.00,105.62
19560.01,125.52
19568.01,197.33
19576.01,225.18
19584.01,196.72
19592.00,176.31
19600.01,133.92
19608.01,84.12
19616.00,46.72
19624.00,-49.77
19632.00,-157.02
19640.00,-183.40
19648.00,-188.29
19656.00,-185.71
19664.01,-144.09
19672.00,-115.52
19680.01,-99.03
19688.01,-68.19
19696.01,-46.63
19704.00,-27.45
19712.01,-3.98
19720.00,14.42
19728.00,33.96
19736.00,52.84
19744.00,68.62
19752.00,85.03
19760.00,100.34
19768.01,113.80
19776.01,127.42
19784.01,139.97
19792.01,151.48
19800.00,162.47
19808.00,172.44
19816.00,181.72
19824.01,190.34
19832.01,198.27
19840.01,205.80
19848.00,234.98
19856.00,297.78
19864.01,334.38
19872.00,326.52
19880.01,330.34
19888.01,337.14
19896.01,323.13
19904.01,304.05
19912.01,287.30
19920.00,300.94
19928.01,348.28
19936.00,371.67
19944.00,379.64
19952.00,409.73
19960.01,430.81
19968.01,441.16
19976.00,468.53
19984.00,509.47
19992.00,541.19
20000.00,540.59
20008.00,524.41
20016.01,500.72
20024.01,454.95
20032.00,372.16
20040.01,278.56
20048.00,250.61
20056.00,252.31
20064.00,206.16
20072.00,136.08
20080.01,55.42
20088.01,26.84
20096.01,103.94
20104.00,134.53
20112.01,61.89
20120.00,45.70
20128.01,53.98
20136.01,-42.93
20144.01,-133.77
20152.00,-127.66
20160.00,-46.45
20168.01,42.83
20176.01,-78.86
20184.00,-270.02
20192.01,-219.89
20200.00,-87.70
20208.01,-1.20
20216.00,-69.33
20224.01,-246.57
20232.00,-207.37
20240.01,-144.47
20248.01,-175.35
20256.00,-30.79
20264.00,292.50
20272.00,669.93
20280.01,810.82
20288.00,666.32
20296.01,607.06
20304.01,600.01
20312.00,514.28
20320.00,474.76
20328.00,440.24
20336.00,379.79
20344.01,344.49
20352.01,303.12
20360.01,257.85
20368.00,223.39
20376.00,184.54
20384.01,147.79
20392.00,114.98
20400.00,80.69
20408.00,49.22
20416.01,19.48
20424.00,-10.06
20432.01,-37.56
20440.00,-64.05
20448.00,-89.44
20456.00,-113.23
20464.00,-136.08
20472.00,-157.92
20480.00,-178.38
20488.01,-197.84
20496.00,-216.22
20504.00,-233.53
20512.00,-249.91
20520.00,-265.16
20528.01,-279.63
20536.01,-292.97
20544.01,-305.44
20552.00,-317.03
20560.00,-327.53
20568.01,-337.06
20576.00,-346.22
20584.01,-354.50
20592.00,-361.31
20600.00,-368.38
20608.01,-374.66
20616.01,-379.94
20624.00,-385.00
20632.01,-388.44
20640.00,-391.25
20648.01,-394.69
20656.00,-396.94
20664.00,-397.72
20672.01,-398.47
20680.00,-399.03
20688.00,-398.88
20696.01,-398.00
20704.00,-397.03
20712.00,-395.41
20720.00,-393.09
20728.00,-390.78
20736.01,-387.59
20744.01,-384.50
20752.00,-380.69
20760.00,-376.47
20768.01,-372.06
20776.00,-367.34
20784.01,-362.19
20792.00,-356.75
20800.01,-351.06
20808.00,-345.13
20816.01,-338.81
20824.01,-332.41
20832.00,-325.69
20840.00,-318.78
20848.01,-311.75
20856.00,-304.38
20864.01,-296.75
20872.01,-289.25
20880.00,-281.38
20888.01,-273.44
20896.00,-265.34
20904.01,-256.53
20912.00,-248.03
20920.01,-240.06
20928.00,-231.34
20936.01,-223.16
20944.00,-214.72
20952.01,-205.94
20960.01,-197.44
20968.01,-188.72
20976.01,-180.06
20984.01,-171.31
20992.01,-162.66
21000.00,-154.19
21008.01,-145.34
21016.00,-136.78
21024.00,-128.09
21032.01,-119.44
21040.00,-110.94
21048.01,-102.41
21056.00,-94.00
21064.00,-85.78
21072.01,-77.50
21080.00,-69.23
21088.01,-60.98
21096.01,-52.88
21104.01,-45.11
21112.01,-37.22
21120.01,-29.33
21128.00,-21.69
21136.01,-13.94
21144.01,-6.56
21152.00,0.64
21160.00,7.88
21168.00,14.81
21176.00,21.89
21184.00,28.92
21192.01,35.44
21200.01,42.05
21208.01,48.41
21216.00,54.84
21224.01,61.01
21232.00,67.02
21240.00,72.74
21248.00,78.31
21256.01,83.97
21264.00,89.36
21272.00,93.96
21280.00,99.04
21288.00,104.08
21296.00,108.84
21304.00,113.20
21312.00,117.89
21320.01,122.30
21328.00,126.05
21336.00,129.90
21344.00,134.23
21352.00,137.88
21360.01,141.13
21368.01,144.48
21376.01,147.30
21384.00,150.35
21392.00,153.38
21400.00,156.13
21408.01,158.84
21416.00,161.29
21424.01,163.47
21432.00,165.59
21440.00,167.88
21448.00,169.97
21456.00,171.33
21464.01,172.39
21472.01,173.72
21480.01,175.16
21488.00,175.97
21496.00,177.03
21504.01,177.97
21512.01,178.50
21520.00,179.17
21528.01,179.59
21536.00,179.91
21544.01,180.08
21552.01,180.02
21560.01,179.86
21568.01,179.56
21576.01,179.30
21584.00,178.67
21592.01,178.20
21600.00,177.63
21608.01,176.72
21616.01,175.94
21624.01,174.83
21632.00,173.63
21640.01,172.47
21648.01,171.34
21656.00,169.72
21664.01,168.22
21672.00,166.88
21680.00,165.19
21688.00,163.53
21696.00,161.41
21704.00,159.66
21712.00,157.81
21720.00,155.63
21728.00,153.59
21736.01,151.31
21744.01,149.00
21752.00,146.72
21760.01,144.47
21768.00,141.97
21776.01,139.44
21784.01,137.03
21792.00,134.47
21800.01,131.91
21808.00,129.03
21816.00,126.19
21824.00,122.84
21832.00,119.91
21840.01,117.62
21848.00,115.47
21856.00,112.44
21864.01,108.84
21872.01,105.66
21880.00,103.06
21888.01,100.23
21896.00,97.36
21904.00,94.39
21912.01,91.52
21920.00,88.53
21928.01,85.53
21936.00,82.53
21944.01,79.56
21952.00,76.72
21960.00,73.72
21968.00,70.87
21976.00,67.81
21984.01,64.87
21992.00,61.83
22000.00,58.92
22008.01,56.17
22016.01,53.05
22024.00,50.06
22032.00,47.38
22040.00,44.44
22048.01,41.69
22056.01,38.67
22064.00,35.86
22072.01,33.17
22080.00,30.52
22088.00,27.64
22096.01,24.92
22104.00,22.39
22112.01,19.61
22120.00,17.14
22128.00,14.47
22136.00,11.92
22144.01,9.45
22152.00,7.00
22160.00,4.48
22168.00,2.14
22176.00,-0.17
22184.01,-2.45
22192.01,-4.91
22200.01,-6.85
22208.00,-9.11
22216.01,-11.44
22224.00,-13.47
22232.00,-15.46
22240.00,-17.40
22248.00,-19.91
22256.00,-22.50
22264.00,-24.39
22272.01,-35.73
22280.00,-334.96
22288.01,-968.20
22296.00,-1103.51
22304.00,-765.30
22312.01,-790.27
22320.00,-813.39
22328.00,-645.19
22336.00,-653.00
22344.00,-610.13
22352.01,-520.70
22360.00,-509.23
22368.00,-452.20
22376.01,-400.67
22384.01,-373.26
22392.01,-325.25
22400.01,-287.95
22408.00,-244.05
22416.00,-190.94
22424.00,-176.97
22432.01,-164.14
22440.00,-118.45
22448.00,-89.72
22456.00,-68.55
22464.01,-35.27
22472.00,-12.67
22480.00,9.84
22488.00,35.92
22496.01,56.13
22504.01,77.05
22512.00,98.37
22520.01,116.03
22528.01,146.22
22536.00,261.80
22544.00,454.14
22552.01,543.80
22560.01,545.06
22568.00,590.44
22576.01,616.25
22584.00,581.28
22592.00,492.63
22600.00,383.58
22608.00,282.06
22616.00,128.34
22624.00,34.03
22632.01,77.91
22640.00,101.72
22648.00,92.05
22656.01,154.14
22664.00,397.44
22672.01,852.58
22680.01,1124.69
22688.00,1006.64
22696.01,905.63
22704.00,912.47
22712.00,837.36
22720.00,741.23
22728.00,576.22
22736.01,350.28
22744.00,212.55
22752.00,85.55
22760.00,-26.37
22768.00,-69.80
22776.01,-174.36
22784.01,-218.13
22792.00,112.30
22800.00,642.61
22808.01,756.44
22816.00,542.77
22824.00,542.77
22832.01,551.22
22840.00,443.95
22848.01,436.50
22856.01,404.52
22864.00,342.86
22872.00,326.50
22880.01,285.95
22888.00,246.85
22896.01,222.47
22904.00,186.59
22912.01,156.83
22920.00,129.60
22928.00,98.80
22936.00,73.77
22944.00,48.30
22952.01,21.83
22960.01,-1.52
22968.01,-25.18
22976.01,-47.06
22984.01,-67.38
22992.00,-88.09
23000.01,-107.79
23008.00,-126.59
23016.01,-144.41
23024.01,-160.80
23032.01,-176.67
23040.00,-191.77
23048.00,-205.72
23056.01,-219.23
23064.00,-232.02
23072.01,-243.94
23080.00,-255.92
23088.00,-266.53
23096.01,-275.83
23104.01,-367.33
23112.00,-765.56
23120.01,-1278.16
23128.00,-1291.50
23136.00,-1054.31
23144.00,-1085.13
23152.01,-1059.72
23160.00,-941.59
23168.01,-939.19
23176.00,-885.72
23184.00,-819.06
23192.01,-796.97
23200.01,-742.38
23208.01,-697.19
23216.01,-613.69
23224.00,-435.56
23232.01,-399.22
23240.01,-571.56
23248.00,-302.31
23256.00,470.72
23264.01,621.22
23272.00,285.34
23280.01,374.59
23288.00,413.19
23296.01,269.16
23304.00,316.97
23312.01,292.00
23320.00,230.59
23328.00,197.31
23336.01,-120.16
23344.00,-622.53
23352.01,-808.19
23360.00,-668.48
23368.01,-620.33
23376.01,-625.47
23384.01,-550.20
23392.00,-519.25
23400.00,-494.41
23408.01,-442.67
23416.01,-415.97
23424.01,-383.00
23432.01,-345.39
23440.00,-318.48
23448.00,-286.58
23456.00,-256.27
23464.00,-229.81
23472.00,-201.53
23480.00,-175.44
23488.01,-150.78
23496.01,-126.00
23504.00,-103.03
23512.00,-80.66
23520.01,-59.05
23528.00,-38.35
23536.01,-17.98
23544.01,1.04
23552.01,53.20
23560.01,286.13
23568.01,710.94
23576.01,969.77
23584.01,939.24
23592.00,889.62
23600.01,858.26
23608.00,798.08
23616.00,764.03
23624.01,721.08
23632.00,579.06
23640.01,267.73
23648.00,-103.08
23656.00,-340.82
23664.00,-352.42
23672.00,-253.89
23680.00,-217.18
23688.01,-175.60
23696.00,-177.75
23704.01,-226.81
23712.00,-166.93
23720.01,-133.83
23728.01,-146.70
23736.01,-104.62
23744.00,-44.26
23752.00,131.36
23760.01,347.70
23768.00,371.00
23776.00,311.30
23784.00,263.36
23792.01,64.27
23800.00,-145.41
23808.01,-117.53
23816.00,-48.36
23824.01,-72.77
23832.01,-52.07
23840.00,-22.34
23848.01,-25.91
23856.01,-5.45
23864.00,9.99
23872.00,14.90
23880.00,29.95
23888.01,39.94
23896.00,48.78
23904.00,59.55
23912.01,67.02
23920.00,74.80
23928.00,82.70
23936.01,89.78
23944.00,96.54
23952.01,102.05
23960.01,107.78
23968.01,113.73
23976.01,118.61
23984.01,123.25
23992.01,127.58
24000.00,131.75
24008.00,135.84
24016.00,138.95
24024.01,140.94
24032.01,143.89
24040.01,146.58
24048.01,147.78
24056.00,149.27
24064.00,150.63
24072.01,151.31
24080.01,151.94
24088.01,152.34
24096.01,152.20
24104.01,152.11
24112.01,151.72
24120.00,151.09
24128.01,150.22
24136.00,149.22
24144.01,147.91
24152.00,146.47
24160.01,144.89
24168.01,143.11
24176.00,141.13
24184.00,139.08
24192.01,136.80
24200.00,134.44
24208.00,131.95
24216.01,129.30
24224.00,126.56
24232.00,123.44
24240.00,119.84
24248.01,116.69
24256.00,113.87
24264.01,110.66
24272.00,107.27
24280.00,104.11
24288.00,100.66
24296.00,97.03
24304.01,93.19
24312.00,90.18
24320.01,87.12
24328.00,83.15
24336.00,79.17
24344.00,75.41
24352.00,71.74
24360.01,68.23
24368.01,64.72
24376.00,61.42
24384.00,57.63
24392.00,53.41
24400.01,49.55
24408.00,46.23
24416.00,43.01
24424.01,39.06
24432.00,35.34
24440.01,31.91
24448.00,28.17
24456.00,24.60
24464.01,21.11
24472.01,17.55
24480.01,14.09
24488.01,10.68
24496.01,7.53
24504.00,4.87
24512.01,1.71
24520.01,-1.86
24528.00,-5.34
24536.00,-8.79
24544.01,-11.86
24552.00,-14.72
24560.01,-17.91
24568.00,-20.79
24576.00,-23.31
24584.00,-25.85
24592.01,-28.73
24600.01,-31.54
24608.00,-34.02
24616.00,-36.38
24624.01,-38.25
24632.01,18.20
24640.01,280.63
24648.00,703.80
24656.00,914.21
24664.01,803.82
24672.01,701.55
24680.00,684.55
24688.00,611.88
24696.00,546.13
24704.01,508.50
24712.01,442.66
24720.01,386.88
24728.00,351.89
24736.00,308.61
24744.00,260.41
24752.00,218.91
24760.01,178.89
24768.01,-8.44
24776.00,-516.28
24784.01,-945.67
24792.00,-873.97
24800.00,-745.95
24808.01,-803.67
24816.00,-758.17
24824.00,-704.72
24832.00,-713.75
24840.00,-670.78
24848.00,-643.56
24856.00,-631.31
24864.00,-597.41
24872.00,-577.03
24880.00,-556.19
24888.00,-529.63
24896.00,-510.75
24904.01,-489.25
24912.01,-467.13
24920.00,-448.28
24928.00,-427.78
24936.00,-408.16
24944.01,-389.72
24952.00,-370.94
24960.01,-353.13
24968.01,-335.97
24976.01,-318.41
24984.01,-301.63
24992.01,-285.13
25000.01,-268.69
25008.01,-253.27
25016.00,-238.34
25024.00,-223.30
25032.00,-209.09
25040.01,-195.08
25048.01,-181.45
25056.00,-168.28
25064.00,-155.39
25072.00,-142.88
25080.01,-130.50
25088.01,-61.70
25096.00,129.98
25104.00,330.11
25112.00,404.30
25120.01,429.09
25128.01,467.53
25136.01,439.59
25144.01,325.00
25152.00,211.97
25160.01,125.50
25168.01,69.97
25176.00,75.77
25184.00,87.30
25192.01,87.73
25200.01,80.50
25208.01,23.34
25216.01,-19.62
25224.00,-49.05
25232.00,-151.47
25240.00,-268.31
25248.00,-279.91
25256.01,-151.77
25264.00,14.38
25272.00,121.68
25280.00,235.24
25288.00,427.84
25296.00,463.30
25304.00,32.44
25312.00,-432.67
25320.00,-188.77
25328.01,397.12
25336.01,395.72
25344.01,33.57
25352.01,-10.04
25360.00,90.11
25368.00,124.22
25376.00,190.34
25384.01,235.70
25392.00,241.93
25400.01,187.50
25408.01,68.74
25416.01,5.11
25424.00,18.91
25432.00,81.95
25440.01,213.80
25448.00,374.65
25456.00,455.18
25464.01,412.32
25472.00,354.90
25480.00,340.48
25488.00,307.65
25496.00,270.48
25504.00,249.90
25512.01,147.09
25520.00,-257.74
25528.01,-801.84
25536.01,-851.03
25544.00,-512.45
25552.00,-140.55
25560.01,328.27
25568.00,405.94
25576.00,176.73
25584.00,239.19
25592.00,248.75
25600.01,146.76
25608.01,177.72
25616.00,149.24
25624.00,105.57
25632.01,111.92
25640.01,80.87
25648.01,60.69
25656.00,52.59
25664.00,29.26
25672.00,16.01
25680.00,3.45
25688.01,-13.30
25696.01,-24.38
25704.00,-36.77
25712.01,-49.47
25720.01,-59.98
25728.01,-70.22
25736.00,-78.95
25744.01,-87.25
25752.00,-96.42
25760.01,-104.14
25768.01,-110.69
25776.00,-116.81
25784.00,-123.17
25792.00,-128.47
25800.01,-133.33
25808.00,-137.86
25816.00,-141.72
25824.01,-145.08
25832.00,-148.25
25840.00,-150.88
25848.00,-153.03
25856.01,-154.88
25864.00,-156.41
25872.01,-157.44
25880.00,-158.17
25888.00,-158.61
25896.00,-158.67
25904.00,-158.39
25912.00,-157.95
25920.01,-157.05
25928.01,-156.02
25936.01,-154.75
25944.00,-153.06
25952.00,-151.34
25960.00,-149.36
25968.00,-147.08
25976.00,-144.67
25984.01,-141.92
25992.00,-139.16
26000.01,-136.17
26008.00,-133.17
26016.00,-129.81
26024.00,-126.45
26032.01,-123.05
26040.01,-119.16
26048.00,-115.51
26056.00,-111.60
26064.01,-107.83
26072.00,-103.80
26080.00,-99.41
26088.00,-94.92
26096.00,-90.70
26104.00,-86.76
26112.01,-82.58
26120.00,-78.44
26128.00,-73.69
26136.00,-69.12
26144.00,-64.71
26152.00,-59.59
26160.00,-55.29
26168.00,-51.16
26176.01,-46.57
26184.00,-42.29
26192.00,-37.81
26200.01,-33.27
26208.00,-29.04
26216.00,-24.76
26224.00,-20.53
26232.00,-16.25
26240.01,-12.04
26248.00,-7.90
26256.00,-3.71
26264.00,0.53
26272.01,4.56
26280.00,8.51
26288.01,12.26
26296.00,16.06
26304.00,19.78
26312.00,23.66
26320.00,27.20
26328.00,30.91
26336.01,34.27
26344.00,37.81
26352.00,41.13
26360.01,44.48
26368.00,47.63
26376.01,50.67
26384.01,53.76
26392.00,56.75
26400.00,59.53
26408.01,62.34
26416.00,64.82
26424.00,67.45
26432.00,70.11
26440.01,72.43
26448.01,74.66
26456.01,77.05
26464.01,78.98
26472.00,81.08
26480.00,83.06
26488.01,84.84
26496.00,86.55
26504.01,88.16
26512.01,89.78
26520.01,91.36
26528.01,92.72
26536.01,94.09
26544.00,95.03
26552.00,95.64
26560.00,97.03
26568.01,98.50
26576.01,98.95
26584.00,99.73
26592.01,100.33
26600.00,100.47
26608.01,101.53
26616.01,102.52
26624.01,102.30
26632.00,102.52
26640.01,103.03
26648.00,102.95
26656.00,103.23
26664.00,103.31
26672.00,103.05
26680.01,102.98
26688.00,102.50
26696.01,101.67
26704.01,101.69
26712.01,101.78
26720.01,100.53
26728.01,99.62
26736.01,99.58
26744.00,98.95
26752.01,97.39
26760.01,96.67
26768.00,96.42
26776.01,94.98
26784.00,93.37
26792.01,93.23
26800.01,92.56
26808.01,90.45
26816.01,89.22
26824.01,88.33
26832.01,87.02
26840.00,85.91
26848.01,84.41
26856.00,83.25
26864.01,81.69
26872.00,80.36
26880.01,78.75
26888.01,77.27
26896.00,75.98
26904.00,74.31
26912.01,72.64
26920.01,71.06
26928.00,69.36
26936.01,67.61
26944.00,66.02
26952.00,64.53
26960.01,62.52
26968.00,60.98
26976.00,59.23
26984.01,57.47
26992.01,55.55
27000.00,53.92
27008.01,52.13
27016.00,50.23
27024.01,48.45
27032.00,46.70
27040.00,44.94
27048.01,42.92
27056.01,41.05
27064.00,39.44
27072.01,37.45
27080.00,35.72
27088.01,34.03
27096.00,32.08
27104.00,30.28
27112.00,28.36
27120.00,26.83
27128.00,25.08
27136.01,23.08
27144.00,21.34
27152.01,19.66
27160.00,17.84
27168.01,16.31
27176.00,14.55
27184.00,12.80
27192.00,11.09
27200.00,9.53
27208.01,7.98
27216.01,6.46
27224.00,4.60
27232.00,3.13
27240.00,1.70
27248.00,-0.21
27256.01,-2.45
27264.00,-4.16
27272.01,-5.08
27280.00,-6.48
27288.01,-7.97
27296.00,-9.18
27304.00,-10.48
27312.00,-11.77
27320.00,-13.13
27328.01,-14.34
27336.00,-15.39
27344.00,-16.66
27352.00,-17.64
27360.00,-18.98
27368.00,-20.03
27376.00,-20.92
27384.01,-80.53
27392.01,-440.83
27400.01,-855.06
27408.00,-448.30
27416.01,242.05
27424.01,71.84
27432.00,-214.82
27440.01,-15.55
27448.00,93.83
27456.00,74.84
27464.00,88.91
27472.00,72.78
27480.00,55.79
27488.01,41.33
27496.01,52.87
27504.01,73.53
27512.01,53.76
27520.01,47.33
27528.01,54.61
27536.01,42.35
27544.01,39.91
27552.00,39.25
27560.00,31.95
27568.00,29.77
27576.00,26.11
27584.01,22.01
27592.01,20.21
27600.01,16.32
27608.01,12.48
27616.00,10.22
27624.01,7.36
27632.01,4.30
27640.01,1.05
27648.01,-1.14
27656.01,-3.54
27664.00,-6.02
27672.00,-8.32
27680.00,-10.45
27688.01,-12.53
27696.00,-14.56
27704.00,-16.43
27712.00,-18.37
27720.00,-20.13
27728.00,-21.73
27736.00,-23.41
27744.00,-24.92
27752.01,-26.51
27760.01,-27.67
27768.01,-29.05
27776.01,-30.26
27784.01,-31.55
27792.01,-32.54
27800.00,-33.62
27808.01,-193.54
27816.00,-671.44
27824.01,-745.64
27832.01,13.41
27840.01,288.60
27848.00,-143.57
27856.00,-189.63
27864.00,-140.07
27872.00,-214.60
27880.01,-94.97
27888.00,10.46
27896.01,34.02
27904.01,-10.76
27912.00,-139.32
27920.01,-244.86
27928.00,-335.88
27936.00,-432.09
27944.01,-458.59
27952.01,-414.30
27960.01,-357.59
27968.00,-333.97
27976.00,-375.59
27984.01,-431.19
27992.00,-515.72
28000.00,-590.82
28008.00,-527.14
28016.01,-450.83
28024.01,-435.68
28032.01,-383.16
28040.01,-335.03
28048.00,-307.21
28056.00,-262.35
28064.01,-226.81
28072.01,-194.91
28080.00,-157.36
28088.01,-126.95
28096.01,-96.76
28104.00,-66.08
28112.01,-39.68
28120.00,-13.39
28128.00,12.27
28136.00,36.35
28144.00,59.42
28152.01,81.41
28160.00,102.05
28168.01,121.61
28176.00,140.73
28184.00,158.27
28192.00,174.27
28200.01,189.59
28208.01,204.13
28216.01,217.39
28224.01,229.88
28232.00,241.14
28240.00,251.39
28248.00,261.80
28256.00,271.36
28264.00,278.80
28272.00,285.55
28280.01,292.22
28288.01,298.53
28296.00,303.88
28304.01,308.41
28312.01,312.56
28320.01,315.91
28328.01,318.59
28336.00,320.88
28344.01,322.31
28352.01,323.41
28360.00,324.09
28368.00,324.03
28376.00,323.53
28384.00,322.69
28392.00,321.34
28400.00,319.53
28408.00,317.38
28416.01,314.78
28424.00,311.88
28432.01,308.28
28440.00,304.28
28448.00,300.81
28456.00,297.00
28464.00,292.06
28472.00,287.22
28480.00,282.28
28488.00,276.69
28496.01,271.13
28504.00,265.50
28512.01,259.41
28520.00,252.97
28528.00,246.09
28536.00,239.81
28544.01,233.00
28552.01,225.66
28560.01,219.41
28568.00,213.03
28576.00,205.97
28584.00,198.45
28592.01,191.14
28600.00,183.77
28608.01,176.53
28616.01,169.67
28624.00,162.22
28632.01,154.30
28640.00,146.67
28648.00,138.83
28656.01,130.33
28664.01,122.56
28672.01,115.47
28680.00,108.08
28688.00,100.00
28696.00,92.08
28704.01,84.89
28712.01,77.44
28720.00,69.81
28728.00,62.69
28736.01,55.32
28744.00,48.07
28752.01,40.98
28760.01,33.91
28768.01,26.93
28776.01,20.07
28784.01,13.26
28792.00,6.56
28800.01,-0.02
28808.00,-6.50
28816.01,-12.86
28824.00,-19.40
28832.00,-25.93
28840.01,-31.38
28848.00,-36.78
28856.01,-43.20
28864.01,-49.20
28872.01,-54.02
28880.01,-59.33
28888.00,-65.27
28896.00,-69.83
28904.01,-74.18
28912.00,-79.50
28920.01,-84.40
28928.01,-89.08
28936.01,-93.20
28944.00,-96.85
28952.00,-101.32
28960.01,-105.66
28968.01,-109.57
28976.01,-112.91
28984.01,-115.92
28992.00,-119.89
29000.00,-123.56
29008.00,-125.91
29016.00,-128.52
29024.00,-131.95
29032.01,-135.16
29040.01,-137.41
29048.01,-138.94
29056.01,-140.95
29064.00,-143.67
29072.00,-146.11
29080.00,-148.05
29088.00,-149.14
29096.01,-150.27
29104.00,-152.19
29112.00,-153.81
29120.00,-154.55
29128.00,-155.22
29136.01,-155.84
29144.00,-156.83
29152.00,-157.67
29160.01,-157.42
29168.01,-158.17
29176.00,-159.11
29184.01,-158.64
29192.00,-158.61
29200.00,-158.75
29208.01,-157.97
29216.01,-157.36
29224.01,-157.13
29232.01,-156.53
29240.01,-156.09
29248.00,-155.53
29256.00,-153.84
29264.00,-152.53
29272.01,-152.38
29280.00,-151.47
29288.00,-149.69
29296.00,-148.09
29304.01,-146.97
29312.01,-145.53
29320.01,-143.97
29328.00,-142.47
29336.00,-140.78
29344.00,-139.00
29352.01,-137.25
29360.00,-135.44
29368.01,-133.47
29376.01,-131.47
29384.01,-129.53
29392.01,-127.34
29400.01,-124.94
29408.01,-122.37
29416.00,-120.31
29424.01,-117.91
29432.01,-115.00
29440.01,-112.97
29448.01,-111.06
29456.00,-108.72
29464.00,-105.94
29472.00,-103.00
29480.00,-100.72
29488.00,-98.31
29496.00,-95.50
29504.01,-93.09
29512.01,-90.44
29520.01,-88.03
29528.00,-86.12
29536.00,-83.30
29544.01,-79.59
29552.01,-76.84
29560.00,-74.50
29568.01,-71.61
29576.00,-68.87
29584.01,-66.33
29592.00,-63.53
29600.01,-60.86
29608.00,-58.16
29616.01,-55.42
29624.01,-52.77
29632.01,-50.05
29640.00,-47.66
29648.01,-45.63
29656.00,-42.86
29664.00,-39.50
29672.00,-37.16
29680.00,-34.42
29688.01,-31.14
29696.01,-28.91
29704.01,-26.53
29712.00,-23.69
29720.01,-21.44
29728.01,-18.92
29736.01,-16.41
29744.00,-14.08
29752.00,-11.67
29760.00,-9.30
29768.00,-7.06
29776.01,-5.03
29784.01,-3.13
29792.00,-0.67
29800.01,1.36
29808.01,3.25
29816.01,6.07
29824.01,7.84
29832.00,9.17
29840.01,12.03
29848.00,14.70
29856.00,16.52
29864.01,18.37
29872.00,20.17
29880.01,21.70
29888.00,22.80
29896.01,24.34
29904.00,26.63
29912.00,28.84
29920.01,30.27
29928.00,31.01
29936.00,32.34
29944.01,34.20
29952.01,35.49
29960.01,37.11
29968.00,38.96
29976.01,39.97
29984.01,41.11
29992.01,42.53
30000.01,43.52
30008.01,44.62
30016.00,46.04
30024.01,47.32
30032.01,48.11
30040.00,48.90
30048.00,49.91
30056.00,75.60
30064.01,168.02
30072.00,302.27
30080.01,455.57
30088.00,675.98
30096.01,877.98
30104.00,904.70
30112.00,820.40
30120.01,760.65
30128.01,715.04
30136.00,651.51
30144.00,562.67
30152.00,429.40
30160.01,288.55
30168.00,167.63
30176.00,60.98
30184.00,-24.13
30192.01,-126.24
30200.01,-218.98
30208.01,-205.26
30216.01,-103.03
30224.01,24.96
30232.00,129.17
30240.01,173.13
30248.01,199.63
30256.00,186.03
30264.01,124.34
30272.01,166.08
30280.01,263.50
30288.00,237.49
30296.01,16.90
30304.00,-444.68
30312.00,-515.59
30320.00,160.03
30328.00,370.41
30336.01,-54.56
30344.00,-136.82
30352.00,-192.95
30360.01,-429.25
30368.01,-560.05
30376.01,-682.59
30384.00,-724.20
30392.00,-732.88
30400.00,-784.44
30408.01,-738.95
30416.01,-677.27
30424.00,-665.50
30432.00,-624.34
30440.01,-584.84
30448.00,-560.39
30456.00,-522.83
30464.01,-433.84
30472.01,-198.95
30480.01,60.67
30488.00,113.36
30496.01,45.86
30504.00,-4.73
30512.00,-76.72
30520.00,-120.39
30528.00,-136.70
30536.01,-246.86
30544.00,-379.26
30552.00,-401.34
30560.01,-374.71
30568.01,-360.41
30576.00,-328.75
30584.01,-297.88
30592.01,-278.92
30600.00,-250.85
30608.00,-226.33
30616.00,-205.76
30624.00,-181.32
30632.01,-160.30
30640.00,-139.97
30648.00,-119.10
30656.00,-100.20
30664.01,-81.41
30672.01,-63.18
30680.01,-46.12
30688.01,-29.36
30696.00,-13.33
30704.00,1.96
30712.00,16.72
30720.00,30.53
30728.00,43.63
30736.00,57.03
30744.00,69.57
30752.00,80.63
30760.00,92.37
30768.01,103.36
30776.01,112.23
30784.00,121.81
30792.01,131.43
30800.00,139.75
30808.00,147.88
30816.00,155.77
30824.01,162.72
30832.00,169.56
30840.01,175.84
30848.00,181.63
30856.00,187.09
30864.01,192.11
30872.00,196.73
30880.00,200.92
30888.00,204.75
30896.01,208.20
30904.00,211.33
30912.00,214.03
30920.00,216.45
30928.01,218.55
30936.01,220.52
30944.00,222.34
30952.00,223.31
30960.01,224.30
30968.01,225.34
30976.01,260.41
30984.00,374.56
30992.01,471.83
31000.00,444.52
31008.00,377.39
31016.01,298.42
31024.00,184.28
31032.00,142.48
31040.00,164.88
31048.00,160.11
31056.00,155.50
31064.01,161.81
31072.00,157.75
31080.00,157.14
31088.01,158.22
31096.01,233.16
31104.01,461.00
31112.00,489.11
31120.00,123.91
31128.01,-3.17
31136.00,166.83
31144.00,111.33
31152.00,66.84
31160.00,134.09
31168.00,94.92
31176.00,91.75
31184.00,113.67
31192.00,91.06
31200.01,97.08
31208.00,102.17
31216.00,131.95
31224.00,246.17
31232.01,337.63
31240.00,340.81
31248.00,363.94
31256.00,417.55
31264.00,412.95
31272.00,350.38
31280.00,247.20
31288.01,130.08
31296.01,51.45
31304.01,3.44
31312.00,-39.55
31320.00,-60.61
31328.01,-51.34
31336.00,-49.23
31344.00,-83.33
31352.01,-108.91
31360.01,-96.94
31368.00,-91.45
31376.01,-95.25
31384.01,-88.59
31392.00,-86.61
31400.01,-86.29
31408.00,-82.18
31416.00,-81.08
31424.00,-79.43
31432.01,-76.93
31440.00,-70.81
31448.00,-53.35
31456.00,-47.84
31464.00,-70.72
31472.00,-80.49
31480.00,-68.43
31488.01,-69.70
31496.01,-71.93
31504.01,-19.87
31512.00,45.56
31520.01,-26.30
31528.00,-118.75
31536.01,-70.77
31544.01,-59.29
31552.00,-90.55
31560.00,-65.22
31568.00,-68.33
31576.00,-77.47
31584.00,-65.18
31592.01,-69.72
31600.00,-69.19
31608.00,-64.88
31616.01,-67.46
31624.01,-65.54
31632.00,-64.24
31640.00,-64.87
31648.00,-63.41
31656.00,-63.27
31664.00,-63.41
31672.01,-62.02
31680.00,-61.20
31688.00,-61.13
31696.01,-60.54
31704.00,-60.01
31712.00,-59.72
31720.00,-59.23
31728.01,-58.83
31736.01,-58.20
31744.01,-13.35
31752.01,128.36
31760.00,291.95
31768.00,384.25
31776.00,418.75
31784.01,414.35
31792.00,383.20
31800.00,325.21
31808.00,265.80
31816.00,237.92
31824.01,164.41
31832.00,61.58
31840.01,7.70
31848.01,-67.38
31856.01,-142.12
31864.00,-181.27
31872.01,-263.35
31880.01,-343.41
31888.00,-361.41
31896.01,-346.33
31904.00,-328.66
31912.01,-321.62
31920.01,-310.34
31928.00,-296.77
31936.00,-288.41
31944.01,-276.70
31952.01,-265.53
31960.00,-256.88
31968.01,-246.83
31976.01,-236.92
31984.00,-227.72
31992.00,-218.36
32000.01,-209.25
32008.00,-200.23
32016.01,-185.03
32024.00,-169.19
32032.00,-172.22
32040.01,-174.69
32048.01,-158.70
32056.00,-151.11
32064.00,-147.88
32072.01,-136.64
32080.01,-130.63
32088.01,-124.75
32096.01,-116.25
32104.00,-110.64
32112.00,-104.09
32120.01,-97.30
32128.01,-91.67
32136.01,-85.51
32144.00,-79.59
32152.00,-74.14
32160.00,-68.54
32168.01,-63.22
32176.01,-58.05
32184.00,-52.98
32192.00,-48.13
32200.00,-43.66
32208.00,-39.41
32216.00,-34.49
32224.01,-29.95
32232.01,-26.48
32240.01,-22.27
32248.01,-17.99
32256.00,-14.55
32264.00,-10.75
32272.00,-6.82
32280.01,-3.49
32288.01,-0.63
32296.00,2.90
32304.01,6.57
32312.00,9.06
32320.01,11.54
32328.00,14.17
32336.01,16.73
32344.00,19.40
32352.01,21.96
32360.00,24.35
32368.01,26.05
32376.00,28.42
32384.00,31.11
32392.00,32.52
32400.01,34.25
32408.01,36.23
32416.01,37.58
32424.01,39.16
32432.01,40.67
32440.00,41.62
32448.00,42.29
32456.00,43.32
32464.01,44.74
32472.00,46.06
32480.01,47.32
32488.00,47.86
32496.00,48.18
32504.01,49.59
32512.01,51.01
32520.01,51.28
32528.00,51.34
32536.01,52.34
32544.00,52.98
32552.01,52.55
32560.00,53.06
32568.01,53.63
32576.01,53.44
32584.01,53.75
32592.01,54.20
32600.00,54.43
32608.01,54.33
32616.01,54.11
32624.01,54.14
32632.00,53.91
32640.01,53.66
32648.00,53.48
32656.01,53.13
32664.00,52.80
32672.01,64.81
32680.01,129.26
32688.00,242.11
32696.00,331.66
32704.01,418.11
32712.01,628.16
32720.00,870.13
32728.01,678.65
32736.00,46.30
32744.01,-24.86
32752.01,688.85
32760.01,934.91
32768.01,610.99
32776.00,606.60
32784.01,646.45
32792.01,514.30
32800.01,501.80
32808.00,464.03
32816.01,390.34
32824.00,369.93
32832.00,321.69
32840.00,275.61
32848.00,246.44
32856.00,204.04
32864.00,168.97
32872.01,137.88
32880.00,102.73
32888.01,72.89
32896.00,43.73
32904.01,14.52
32912.01,-11.65
32920.00,-37.31
32928.00,-61.94
32936.01,-84.72
32944.01,-106.81
32952.00,-127.50
32960.00,-147.00
32968.00,-165.61
32976.00,-182.92
32984.00,-199.23
32992.00,-214.55
33000.00,-228.86
33008.00,-242.23
33016.00,-254.64
33024.01,-266.13
33032.00,-276.72
33040.01,-286.48
33048.01,-295.38
33056.00,-303.56
33064.01,-310.81
33072.00,-317.31
33080.00,-323.16
33088.00,-328.25
33096.00,-332.72
33104.01,-336.44
33112.00,-339.50
33120.00,-342.09
33128.01,-381.75
33136.00,-508.91
33144.00,-542.41
33152.01,-340.03
33160.01,-252.25
33168.01,-354.41
33176.00,-328.13
33184.00,-294.81
33192.00,-335.44
33200.01,-312.88
33208.00,-306.94
33216.01,-319.69
33224.00,-304.09
33232.01,-304.69
33240.01,-304.25
33248.00,-295.09
33256.01,-294.03
33264.00,-289.19
33272.00,-282.63
33280.01,-278.44
33288.01,-272.25
33296.01,-266.75
33304.00,-261.47
33312.00,-255.03
33320.01,-249.03
33328.00,-242.72
33336.00,-235.88
33344.01,-228.47
33352.01,-221.47
33360.00,-214.91
33368.00,-207.97
33376.00,-200.66
33384.00,-193.63
33392.00,-186.31
33400.01,-179.02
33408.00,-171.56
33416.00,-163.95
33424.00,-156.33
33432.01,-148.75
33440.00,-141.22
33448.00,-134.02
33456.00,-126.83
33464.00,-119.20
33472.00,-110.53
33480.00,-103.06
33488.00,-96.33
33496.01,-88.02
33504.00,-79.92
33512.01,-73.33
33520.01,-66.16
33528.00,-58.09
33536.01,-50.78
33544.00,-43.70
33552.01,-36.71
33560.01,-29.34
33568.01,-22.46
33576.01,-15.45
33584.01,-8.57
33592.00,-1.92
33600.01,4.71
33608.00,11.11
33616.01,16.99
33624.00,23.00
33632.00,29.63
33640.00,36.38
33648.00,41.59
33656.00,47.56
33664.01,53.50
33672.01,58.68
33680.00,64.35
33688.00,69.24
33696.00,73.51
33704.01,78.63
33712.01,84.50
33720.01,89.19
33728.01,93.62
33736.00,98.16
33744.01,102.42
33752.01,106.29
33760.01,110.40
33768.00,114.09
33776.00,118.03
33784.00,121.58
33792.01,124.73
33800.00,128.00
33808.01,130.75
33816.01,132.97
33824.01,135.84
33832.00,139.17
33840.01,141.25
33848.01,142.92
33856.01,145.64
33864.01,147.67
33872.00,149.59
33880.00,151.78
33888.00,153.31
33896.01,154.83
33904.01,156.34
33912.01,157.50
33920.01,158.64
33928.01,159.69
33936.01,160.38
33944.00,161.03
33952.01,161.72
33960.00,162.28
33968.01,162.77
33976.00,162.73
33984.01,162.84
33992.01,162.88
34000.00,162.77
34008.01,162.70
34016.00,162.19
34024.00,161.81
34032.00,161.34
34040.01,160.66
34048.00,159.59
34056.01,157.88
34064.01,157.22
34072.00,157.06
34080.00,156.22
34088.01,154.50
34096.00,153.28
34104.01,151.78
34112.00,150.09
34120.01,148.84
34128.01,147.09
34136.00,145.50
34144.00,143.47
34152.01,141.91
34160.00,139.75
34168.01,137.72
34176.00,135.56
34184.01,133.47
34192.00,131.41
34200.00,129.00
34208.00,126.91
34216.00,124.47
34224.01,122.06
34232.00,119.72
34240.00,117.09
34248.00,114.78
34256.01,112.09
34264.01,109.72
34272.00,106.69
34280.00,103.69
34288.01,101.56
34296.00,99.34
34304.01,95.94
34312.00,93.12
34320.00,89.81
34328.00,86.89
34336.00,84.58
34344.01,81.75
34352.00,78.70
34360.00,76.25
34368.00,73.33
34376.00,70.66
34384.01,67.87
34392.00,65.08
34400.00,62.44
34408.00,59.69
34416.01,56.92
34424.00,54.06
34432.01,51.48
34440.00,48.41
34448.00,45.88
34456.01,43.09
34464.00,40.50
34472.00,37.75
34480.00,34.94
34488.01,32.52
34496.01,29.89
34504.01,27.02
34512.01,24.70
34520.00,22.16
34528.00,19.55
34536.00,17.06
34544.00,14.52
34552.00,12.11
34560.01,9.75
34568.01,7.44
34576.00,5.02
34584.01,2.69
34592.00,0.34
34600.01,-1.94
34608.01,-4.16
34616.01,-6.23
34624.00,-8.37
34632.01,-10.33
34640.01,-12.38
34648.00,-14.41
34656.00,-16.48
34664.01,-18.40
34672.01,-20.14
34680.00,-21.95
34688.01,-23.97
34696.00,-25.70
34704.01,-27.36
34712.01,-28.98
34720.00,-30.55
34728.00,-32.07
34736.00,-33.67
34744.00,-35.34
34752.00,-36.59
34760.00,-37.91
34768.00,-39.43
34776.00,-40.77
34784.00,-41.95
34792.00,-43.31
34800.00,-44.38
34808.00,-45.40
34816.01,-46.62
34824.00,-47.54
34832.00,-48.54
34840.00,-49.48
34848.00,-50.38
34856.01,-51.36
34864.01,-51.91
34872.00,-52.79
34880.00,-53.37
34888.01,-54.15
34896.00,-54.77
34904.00,-55.33
34912.00,-55.98
34920.00,-56.46
34928.00,-57.01
34936.01,-57.39
34944.01,-57.61
34952.00,-58.04
34960.00,-58.17
34968.01,-58.50
34976.00,-58.81
34984.00,-58.81
34992.00,-59.03
35000.00,-59.08
35008.00,-59.22
35016.00,-59.07
35024.00,-59.14
35032.01,-59.16
35040.00,-59.03
35048.00,-58.86
35056.00,-58.90
35064.01,-58.54
35072.01,-58.39
35080.00,-58.21
35088.00,-58.00
35096.00,-57.62
35104.01,-57.35
35112.00,-57.05
35120.00,-56.59
35128.01,-56.10
35136.01,-55.58
35144.00,-55.17
35152.00,-55.10
35160.00,-97.88
35168.00,-176.66
35176.00,-132.97
35184.01,-13.64
35192.01,-25.44
35200.01,-57.99
35208.01,-26.39
35216.00,-35.38
35224.00,-43.55
35232.01,-30.66
35240.00,-37.88
35248.00,-37.42
35256.00,-33.34
35264.00,-36.92
35272.01,-34.80
35280.01,-33.70
35288.00,-34.96
35296.01,-33.44
35304.00,-33.41
35312.00,-33.00
35320.00,-32.07
35328.01,-31.77
35336.00,-30.82
35344.00,-30.62
35352.00,-30.41
35360.00,-28.69
35368.00,-28.35
35376.00,-28.87
35384.01,-27.50
35392.00,-26.38
35400.00,-26.26
35408.00,-25.51
35416.00,-25.01
35424.01,-24.50
35432.01,-23.86
35440.01,-23.21
35448.01,-23.32
35456.01,-22.03
35464.00,-21.00
35472.01,-20.85
35480.00,-20.20
35488.00,-19.17
35496.00,-18.76
35504.00,-17.98
35512.00,-17.33
35520.01,-17.19
35528.00,-17.02
35536.00,-16.49
35544.01,-15.45
35552.00,-14.67
35560.00,-14.02
35568.00,-13.37
35576.00,-12.48
35584.01,-11.47
35592.00,-10.85
35600.01,-10.11
35608.01,-8.88
35616.00,-9.16
35624.00,-8.43
35632.00,-7.34
35640.00,-7.51
35648.00,-6.42
35656.01,-5.11
35664.00,-4.43
35672.01,-3.77
35680.01,-3.25
35688.01,-2.72
35696.01,-2.09
35704.00,-1.59
35712.01,-0.84
35720.00,-0.49
35728.00,-0.02
35736.01,0.44
35744.00,1.28
35752.01,1.71
35760.00,2.02
35768.00,2.56
35776.01,3.10
35784.00,3.75
35792.01,4.00
35800.00,4.63
35808.01,4.99
35816.01,5.34
35824.01,5.93
35832.00,6.26
35840.00,6.58
35848.01,7.13
35856.00,7.42
35864.01,7.83
35872.00,8.35
35880.01,8.60
35888.00,8.84
35896.00,9.20
35904.01,9.67
35912.01,9.88
35920.01,10.07
35928.00,10.51
35936.00,10.68
35944.00,10.84
35952.01,11.24
35960.01,11.62
35968.01,11.75
35976.01,11.98
35984.00,12.08
35992.00,12.30
36000.01,12.63
36008.00,12.82
36016.01,12.74
36024.01,12.41
36032.01,13.08
36040.00,13.61
36048.00,13.24
36056.01,13.49
36064.00,13.73
36072.00,13.71
36080.00,14.06
36088.01,14.01
36096.01,13.58
36104.00,13.53
36112.01,13.96
36120.00,14.51
36128.00,14.16
36136.00,14.19
36144.00,14.58
36152.00,14.45
36160.00,14.57
36168.00,14.30
36176.00,13.90
36184.00,13.50
36192.00,13.97
36200.01,14.43
36208.01,14.12
36216.00,13.93
36224.01,14.11
36232.00,13.91
36240.01,14.07
36248.00,13.85
36256.01,13.87
36264.00,13.63
36272.00,13.64
36280.00,13.27
36288.00,13.27
36296.00,12.76
36304.00,12.12
36312.00,12.62
36320.00,12.98
36328.01,11.94
36336.00,11.54
36344.00,11.39
36352.00,11.37
36360.01,11.21
36368.00,11.04
36376.00,11.13
36384.00,11.20
36392.00,10.89
36400.01,10.33
36408.01,11.03
36416.00,10.33
36424.00,9.51
36432.00,9.82
36440.01,9.87
36448.00,9.80
36456.00,9.46
36464.01,8.88
36472.00,9.55
36480.01,9.21
36488.00,8.49
36496.01,8.40
36504.00,7.68
36512.00,7.97
36520.00,8.26
36528.00,7.53
36536.01,7.93
36544.00,8.20
36552.01,7.33
36560.00,6.85
36568.00,6.38
36576.00,6.03
36584.01,6.82
36592.01,6.45
36600.00,5.09
36608.01,5.13
36616.00,5.79
36624.01,5.18
36632.00,5.09
36640.00,5.49
36648.01,4.50
36656.01,3.53
36664.00,3.70
36672.00,3.49
36680.00,3.16
36688.01,3.20
36696.01,3.62
36704.00,3.16
36712.00,2.70
36720.00,2.49
36728.01,2.04
36736.01,2.35
36744.00,1.90
36752.00,0.96
36760.01,1.41
36768.01,1.22
36776.00,0.91
36784.00,0.86
36792.00,0.81
36800.01,0.63
36808.01,0.33
36816.00,0.17
36824.00,0.13
36832.00,-0.04
36840.01,-0.20
36848.00,-0.36
36856.00,-0.51
36864.01,-0.66
36872.00,-0.81
36880.01,-0.71
36888.01,-0.98
36896.01,-1.12
36904.00,-1.26
36912.00,-1.27
36920.00,-1.40
36928.00,-1.65
36936.00,-1.78
36944.00,-1.77
36952.00,-2.02
36960.01,-2.13
36968.00,-2.12
36976.00,-2.35
36984.00,-2.45
36992.01,-2.43
37000.00,-2.65
37008.00,-2.62
37016.00,-2.71
37024.00,-2.67
37032.01,-2.89
37040.01,-3.09
37048.00,-3.04
37056.01,-3.24
37064.01,-3.06
37072.01,-3.26
37080.00,-3.20
37088.00,-3.38
37096.01,-3.32
37104.01,-3.37
37112.01,-3.55
37120.01,-3.48
37128.00,-3.65
37136.00,-3.69
37144.00,-3.61
37152.01,-3.77
37160.01,-4.05
37168.00,-4.45
37176.01,-4.09
37184.01,-3.36
37192.00,-3.77
37200.01,-3.66
37208.00,-3.81
37216.00,-3.95
37224.01,-3.71
37232.00,-3.84
37240.00,-3.98
37248.01,-3.98
37256.01,-3.85
37264.01,-4.10
37272.01,-4.97
37280.00,-4.69
37288.00,-3.79
37296.01,-3.41
37304.00,-4.03
37312.01,-3.63
37320.00,-3.99
37328.00,-4.34
37336.00,-3.94
37344.00,-3.53
37352.00,-4.14
37360.01,-3.73
37368.00,-3.19
37376.01,-3.80
37384.01,-3.39
37392.00,-3.48
37400.00,-3.57
37408.00,-3.41
37416.01,-3.24
37424.01,-3.33
37432.01,-3.04
37440.00,-3.13
37448.01,-3.21
37456.01,-2.92
37464.01,-3.00
37472.00,-2.96
37480.00,-2.91
37488.01,-2.87
37496.01,-2.95
37504.00,-2.90
37512.00,-2.72
37520.01,-2.67
37528.01,-2.62
37536.01,-2.82
37544.00,-2.64
37552.00,-2.58
37560.00,-2.53
37568.00,-2.35
37576.01,-2.54
37584.01,-2.36
37592.00,-2.18
37600.00,-2.37
37608.01,-2.19
37616.01,-2.25
37624.00,-2.07
37632.00,-1.88
37640.00,-2.08
37648.01,-1.89
37656.00,-1.96
37664.01,-1.77
37672.01,-1.84
37680.00,-1.65
37688.00,-1.71
37696.00,-1.53
37704.01,-1.47
37712.01,-1.29
37720.01,-1.36
37728.00,-1.42
37736.01,-1.24
37744.00,-1.18
37752.01,-1.00
37760.01,-0.82
37768.00,-0.77
37776.01,-1.22
37784.00,-1.03
37792.00,-0.97
37800.00,-1.17
37808.01,-0.86
37816.00,-0.67
37824.00,-0.62
37832.00,-0.57
37840.01,-0.64
37848.01,-0.59
37856.00,-0.54
37864.00,-0.48
37872.01,-0.56
37880.00,-0.25
37888.01,-0.21
37896.00,-0.16
37904.01,-0.24
37912.00,-0.19
37920.00,-0.14
37928.00,-0.10
37936.01,-0.05
37944.00,-0.01
37952.00,0.04
37960.00,-0.05
37968.01,-0.00
37976.00,0.29
37984.01,0.33
37992.00,0.37
38000.01,0.40
38008.00,0.31
38016.01,0.35
38024.00,0.38
38032.00,0.42
38040.00,0.45
38048.00,0.49
38056.00,0.52
38064.01,0.55
38072.00,0.58
38080.00,0.61
38088.00,0.64
38096.00,0.66
38104.00,0.69
38112.01,0.72
38120.01,0.74
38128.00,0.76
38136.01,0.79
38144.00,0.81
38152.00,0.83
38160.01,0.85
38168.00,0.87
38176.00,0.89
38184.01,0.78
38192.01,0.80
38200.01,0.82
38208.00,1.08
38216.01,1.09
38224.00,1.10
38232.00,1.11
38240.00,1.12
38248.00,1.13
38256.00,1.14
38264.00,1.14
38272.00,0.90
38280.01,0.91
38288.01,0.92
38296.01,0.92
38304.00,0.93
38312.00,0.94
38320.01,0.94
38328.01,0.95
38336.00,1.20
38344.01,1.20
38352.01,1.20
38360.00,1.20
38368.01,1.19
38376.01,1.19
38384.01,1.18
38392.01,1.18
38400.01,0.92
38408.01,0.92
38416.00,0.92
38424.00,0.67
38432.00,0.17
38440.00,0.93
38448.00,1.42
38456.00,1.16
38464.01,1.02
38472.01,1.02
38480.00,1.01
38488.00,0.87
38496.00,1.12
38504.01,1.10
38512.00,1.09
38520.00,0.95
38528.01,0.94
38536.01,0.93
38544.00,0.92
38552.01,0.90
38560.00,0.77
38568.01,1.01
38576.00,0.99
38584.00,0.72
38592.01,-0.04
38600.01,-0.41
38608.01,0.10
38616.01,-0.02
38624.01,0.10
38632.01,0.10
38640.01,0.10
38648.01,0.10
38656.01,0.35
38664.00,0.22
38672.00,0.35
38680.00,0.22
38688.00,0.34
38696.00,0.46
38704.00,0.45
38712.00,0.44
38720.00,0.43
38728.00,0.43
38736.00,0.42
38744.01,0.41
38752.00,0.53
38760.01,0.39
38768.00,0.63
38776.01,0.49
38784.00,0.61
38792.01,0.47
38800.01,-4.42
38808.00,-53.21
38816.00,-167.30
38824.01,-233.87
38832.00,-206.55
38840.00,-385.23
38848.01,-817.17
38856.00,-944.82
38864.00,-628.34
38872.01,-368.69
38880.01,-489.33
38888.00,-718.40
38896.01,-640.81
38904.00,-508.65
38912.01,-528.80
38920.00,-463.36
38928.00,-394.87
38936.00,-380.67
38944.00,-321.25
38952.01,-279.63
38960.00,-249.49
38968.01,-181.40
38976.00,-62.09
38984.00,96.12
38992.01,210.67
39000.00,276.03
39008.00,327.39
39016.01,334.89
39024.01,350.34
39032.01,470.52
39040.00,653.25
39048.00,779.25
39056.00,815.11
39064.00,791.44
39072.00,744.81
39080.01,715.23
39088.01,688.16
39096.00,651.53
39104.01,607.41
39112.00,530.77
39120.01,460.72
39128.00,435.86
39136.00,421.55
39144.00,402.38
39152.00,382.19
39160.00,344.88
39168.01,271.33
39176.00,187.34
39184.01,166.86
39192.01,188.64
39200.01,157.50
39208.00,101.37
39216.01,81.50
39224.00,47.06
39232.00,-27.89
39240.01,-69.89
39248.01,49.67
39256.00,271.22
39264.00,122.66
39272.00,-443.94
39280.01,-560.55
39288.00,18.28
39296.01,376.28
39304.01,100.55
39312.01,-157.44
39320.01,23.56
39328.01,271.24
39336.01,358.59
39344.01,398.31
39352.00,367.52
39360.01,319.84
39368.01,314.85
39376.00,285.77
39384.01,256.66
39392.00,242.73
39400.00,216.01
39408.01,195.03
39416.01,177.58
39424.01,155.97
39432.00,137.43
39440.01,118.89
39448.00,101.13
39456.00,85.02
39464.01,67.91
39472.01,51.71
39480.00,37.27
39488.00,22.47
39496.00,8.17
39504.01,-5.10
39512.00,-18.62
39520.00,-30.63
39528.01,-42.26
39536.00,-54.52
39544.01,-65.02
39552.01,-74.91
39560.00,-85.19
39568.00,-94.45
39576.00,-103.25
39584.01,-111.69
39592.01,-119.53
39600.01,-126.88
39608.00,-134.02
39616.00,-140.57
39624.00,-147.03
39632.01,-152.64
39640.00,-158.19
39648.00,-163.28
39656.00,-167.92
39664.01,-172.38
39672.00,-176.27
39680.01,-179.83
39688.00,-246.08
39696.01,-566.44
39704.00,-789.39
39712.00,-301.16
39720.00,80.94
39728.00,-186.84
39736.01,-183.48
39744.00,-55.31
39752.00,-179.13
39760.00,-144.02
39768.00,-115.08
39776.00,-168.75
39784.00,-138.70
39792.01,-143.22
39800.00,-159.47
39808.01,-145.31
39816.00,-152.81
39824.00,-155.94
39832.01,-155.20
39840.01,-178.59
39848.01,-213.33
39856.00,-252.11
39864.00,-314.19
39872.01,-423.61
39880.00,-541.06
39888.00,-592.36
39896.00,-605.78
39904.00,-649.61
39912.01,-690.30
39920.01,-692.17
39928.01,-712.69
39936.01,-768.27
39944.00,-780.78
39952.01,-723.34
39960.00,-658.30
39968.00,-614.92
39976.01,-565.98
39984.01,-513.86
39992.01,-471.41
40000.00,-426.59
40008.00,-382.34
40016.00,-342.70
40024.00,-302.20
40032.01,-264.02
40040.01,-227.79
40048.00,-191.72
40056.00,-154.20
40064.00,-84.31
40072.01,33.08
40080.00,146.10
40088.01,232.01
40096.00,331.66
40104.01,483.97
40112.00,539.35
40120.01,232.59
40128.01,-123.14
40136.01,70.92
40144.00,551.03
40152.00,625.59
40160.00,398.37
40168.00,386.92
40176.00,512.19
40184.01,458.02
40192.00,368.98
40200.00,407.39
40208.01,374.80
40216.00,231.59
40224.00,124.45
40232.00,25.72
40240.01,-43.33
40248.00,-39.72
40256.00,-26.41
40264.01,-3.06
40272.00,22.00
40280.00,33.53
40288.00,54.39
40296.01,72.08
40304.00,84.81
40312.01,102.06
40320.00,115.36
40328.01,127.64
40336.01,140.61
40344.00,152.33
40352.00,163.58
40360.01,173.55
40368.01,182.64
40376.01,191.58
40384.00,199.45
40392.00,206.77
40400.01,213.53
40408.00,219.44
40416.01,224.91
40424.00,229.81
40432.00,234.16
40440.00,237.97
40448.01,241.19
40456.00,243.88
40464.00,246.22
40472.00,247.97
40480.01,249.19
40488.01,250.13
40496.00,250.53
40504.01,250.69
40512.01,250.31
40520.00,249.56
40528.00,268.97
40536.00,331.59
40544.00,342.56
40552.01,237.84
40560.01,195.03
40568.00,270.31
40576.01,288.19
40584.01,223.72
40592.01,193.50
40600.00,215.06
40608.00,210.72
40616.01,194.94
40624.00,202.22
40632.01,195.28
40640.01,187.63
40648.00,188.45
40656.00,180.98
40664.00,176.45
40672.00,173.20
40680.01,166.92
40688.00,162.47
40696.00,157.61
40704.00,151.83
40712.00,146.91
40720.00,141.44
40728.00,135.83
40736.00,130.52
40744.00,124.77
40752.01,119.16
40760.00,113.52
40768.01,107.75
40776.01,102.03
40784.01,96.31
40792.00,90.48
40800.00,84.67
40808.00,78.87
40816.00,73.12
40824.01,67.39
40832.01,61.63
40840.00,55.95
40848.00,50.28
40856.00,44.63
40864.00,38.96
40872.00,33.41
40880.01,27.94
40888.00,22.45
40896.00,28.06
40904.01,49.33
40912.01,55.09
40920.00,39.57
40928.00,28.15
40936.00,20.51
40944.00,28.28
40952.00,107.70
40960.01,256.30
40968.00,203.03
40976.01,-99.33
40984.01,-166.53
40992.00,111.35
41000.00,383.77
41008.00,308.27
41016.00,-10.82
41024.01,-30.47
41032.00,72.59
41040.01,-4.96
41048.00,4.93
41056.00,26.68
41064.00,-35.45
41072.01,-45.48
41080.00,-48.68
41088.01,-63.20
41096.00,-57.37
41104.00,-31.90
41112.00,10.16
41120.00,7.59
41128.01,-11.83
41136.00,48.41
41144.00,115.87
41152.00,99.11
41160.01,63.09
41168.00,52.27
41176.00,46.19
41184.00,46.97
41192.00,44.34
41200.01,25.11
41208.01,-0.61
41216.01,-30.66
41224.00,-74.16
41232.01,-116.23
41240.00,-144.86
41248.01,-179.53
41256.01,-214.41
41264.01,-233.78
41272.00,-251.63
41280.00,-283.66
41288.00,-332.91
41296.00,-379.94
41304.01,-407.25
41312.01,-424.13
41320.01,-420.00
41328.00,-396.00
41336.00,-394.75
41344.01,-400.06
41352.00,-386.44
41360.01,-385.38
41368.00,-351.59
41376.01,-224.59
41384.00,-228.06
41392.00,-520.47
41400.01,-688.91
41408.00,-411.25
41416.00,-23.28
41424.00,-45.28
41432.00,-336.34
41440.00,-316.81
41448.01,-142.34
41456.00,-110.03
41464.01,-34.72
41472.01,31.84
41480.00,28.66
41488.01,48.53
41496.01,54.25
41504.01,54.25
41512.00,63.78
41520.00,84.28
41528.00,148.94
41536.00,184.03
41544.00,175.28
41552.01,191.84
41560.00,175.31
41568.01,126.31
41576.00,111.28
41584.00,89.44
41592.00,58.19
41600.01,42.13
41608.01,19.91
41616.00,-1.94
41624.01,-18.03
41632.01,-37.22
41640.00,-54.09
41648.00,-68.87
41656.00,-84.53
41664.00,-98.09
41672.01,-110.94
41680.00,-123.28
41688.00,-134.06
41696.01,-144.19
41704.01,-154.09
41712.00,-162.97
41720.00,-171.22
41728.01,-179.19
41736.00,-185.50
41744.01,-191.41
41752.00,-196.72
41760.00,-200.88
41768.00,-205.44
41776.01,-209.56
41784.01,-212.06
41792.00,-214.44
41800.00,-216.47
41808.01,-217.66
41816.00,-218.56
41824.01,-219.09
41832.01,-218.56
41840.01,-217.59
41848.01,-216.81
41856.01,-216.47
41864.00,-214.69
41872.00,-211.66
41880.01,-209.41
41888.00,-207.09
41896.00,-203.88
41904.00,-200.69
41912.01,-197.28
41920.01,-193.50
41928.01,-189.47
41936.01,-185.19
41944.00,-180.66
41952.01,-176.00
41960.00,-171.22
41968.01,-166.16
41976.00,-160.84
41984.01,-155.50
41992.01,-150.06
42000.00,-144.41
42008.00,-138.48
42016.00,-132.70
42024.00,-126.64
42032.00,-120.55
42040.00,-114.48
42048.00,-108.39
42056.00,-102.14
42064.01,-95.69
42072.00,-89.33
42080.00,-83.16
42088.00,-76.66
42096.01,-70.36
42104.00,-63.78
42112.00,-57.39
42120.01,-50.98
42128.00,-44.63
42136.01,-38.27
42144.00,-32.12
42152.01,-25.69
42160.01,-19.50
42168.00,-13.41
42176.01,-7.17
42184.00,-1.18
42192.01,4.70
42200.00,10.85
42208.00,16.62
42216.00,22.27
42224.01,28.18
42232.01,33.58
42240.01,39.23
42248.00,44.63
42256.01,49.90
42264.01,55.04
42272.00,60.17
42280.00,65.04
42288.00,69.90
42296.00,74.75
42304.00,79.22
42312.00,83.79
42320.01,88.11
42328.01,92.41
42336.01,96.70
42344.01,100.60
42352.00,104.61
42360.00,108.23
42368.01,111.70
42376.01,115.18
42384.01,118.77
42392.00,121.95
42400.00,124.88
42408.00,128.05
42416.01,130.98
42424.00,133.98
42432.00,136.48
42440.00,138.63
42448.00,141.11
42456.00,143.47
42464.01,145.42
42472.01,146.63
42480.00,148.11
42488.00,150.36
42496.01,151.34
42504.01,152.58
42512.00,154.03
42520.01,155.41
42528.01,157.17
42536.01,158.14
42544.00,158.39
42552.00,159.28
42560.00,159.80
42568.01,159.44
42576.01,159.50
42584.01,160.11
42592.00,160.58
42600.00,160.06
42608.01,159.73
42616.01,159.75
42624.01,159.38
42632.00,158.84
42640.01,158.16
42648.00,157.47
42656.00,156.56
42664.01,155.72
42672.00,154.75
42680.01,153.75
42688.00,152.53
42696.00,151.25
42704.01,149.75
42712.00,148.06
42720.00,146.25
42728.01,144.78
42736.01,143.34
42744.00,141.75
42752.01,140.19
42760.00,138.25
42768.01,136.19
42776.00,134.56
42784.01,132.44
42792.00,130.38
42800.01,128.34
42808.00,126.06
42816.01,123.69
42824.00,120.81
42832.01,119.03
42840.00,116.84
42848.01,113.44
42856.00,111.09
42864.00,109.44
42872.00,106.44
42880.01,103.69
42888.00,101.91
42896.00,98.94
42904.01,95.47
42912.00,93.59
42920.00,90.84
42928.01,88.09
42936.00,85.42
42944.00,82.81
42952.01,80.17
42960.00,77.50
42968.00,74.77
42976.00,71.98
42984.01,69.48
42992.01,66.73
43000.00,64.00
43008.01,61.41
43016.00,58.56
43024.01,55.98
43032.01,53.19
43040.00,50.38
43048.01,47.72
43056.00,45.13
43064.00,42.52
43072.00,39.91
43080.00,37.23
43088.00,34.44
43096.00,31.94
43104.00,29.47
43112.00,26.91
43120.00,24.37
43128.00,21.98
43136.01,19.52
43144.01,16.97
43152.00,14.44
43160.00,12.06
43168.00,9.86
43176.00,7.42
43184.01,5.56
43192.00,3.45
43200.00,0.91
43208.01,-1.84
43216.01,-3.67
43224.00,-5.84
43232.00,-8.22
43240.00,-10.03
43248.00,-11.83
43256.00,-13.82
43264.01,-15.77
43272.00,-17.66
43280.00,-19.38
43288.00,-21.44
43296.00,-23.20
43304.00,-25.16
43312.01,-27.19
43320.00,-28.66
43328.01,-30.46
43336.00,-32.34
43344.01,-33.66
43352.00,-34.67
43360.00,-36.41
43368.00,-79.21
43376.01,-209.78
43384.00,-329.75
43392.00,-364.50
43400.00,-412.74
43408.01,-477.55
43416.01,-502.22
43424.00,-540.98
43432.00,-592.92
43440.01,-626.26
43448.01,-649.45
43456.00,-644.04
43464.01,-580.59
43472.01,-413.09
43480.00,-256.49
43488.00,-366.82
43496.00,-558.71
43504.01,-387.25
43512.01,31.35
43520.01,185.77
43528.00,-49.34
43536.01,-235.36
43544.00,-118.22
43552.00,-3.34
43560.01,-10.26
43568.00,-7.54
43576.00,-58.23
43584.01,-131.56
43592.01,-168.55
43600.00,-217.36
43608.01,-210.73
43616.00,-158.48
43624.00,-135.09
43632.01,-109.73
43640.00,-79.36
43648.00,-56.80
43656.01,-30.58
43664.00,-6.50
43672.00,14.50
43680.01,36.59
43688.01,56.66
43696.01,75.28
43704.01,93.52
43712.00,110.22
43720.00,125.89
43728.00,141.23
43736.01,154.80
43744.00,168.23
43752.01,180.45
43760.01,191.72
43768.01,202.14
43776.01,211.72
43784.00,220.53
43792.00,228.61
43800.00,235.92
43808.00,242.58
43816.01,249.88
43824.01,286.84
43832.00,379.09
43840.00,465.31
43848.01,535.47
43856.00,664.38
43864.00,762.59
43872.01,773.22
43880.00,850.25
43888.00,992.25
43896.01,881.72
43904.01,350.66
43912.00,-41.28
43920.00,338.33
43928.00,874.56
43936.01,612.70
43944.00,114.56
43952.00,116.75
43960.00,123.30
43968.01,-21.27
43976.00,-27.89
43984.01,-50.64
43992.00,-101.56
44000.01,-101.16
44008.00,-104.36
44016.00,-90.22
44024.00,-77.55
44032.01,-77.83
44040.00,-65.86
44048.00,-59.38
44056.00,-55.66
44064.01,-47.36
44072.00,-5.84
44080.01,129.22
44088.00,261.48
44096.00,266.89
44104.00,286.70
44112.00,408.28
44120.00,496.74
44128.00,510.48
44136.00,475.95
44144.00,416.39
44152.00,364.88
44160.01,276.05
44168.00,137.48
44176.01,-5.56
44184.01,-145.33
44192.00,-253.88
44200.01,-306.90
44208.00,-332.29
44216.00,-330.92
44224.01,-305.57
44232.00,-296.06
44240.00,-289.99
44248.01,-267.47
44256.01,-242.96
44264.01,-226.63
44272.01,-222.16
44280.01,-216.13
44288.00,-221.21
44296.00,-185.30
44304.01,-113.77
44312.00,-184.77
44320.01,-260.44
44328.01,-188.38
44336.01,-182.43
44344.01,-207.24
44352.00,-169.98
44360.00,-174.02
44368.00,-174.46
44376.00,-155.30
44384.00,-157.80
44392.00,-150.80
44400.00,-142.02
44408.00,-141.30
44416.01,-134.17
44424.01,-127.86
44432.01,-124.39
44440.00,-119.14
44448.00,-115.18
44456.01,-111.95
44464.00,-107.70
44472.00,-103.41
44480.00,-99.16
44488.00,-95.47
44496.00,-92.36
44504.00,-89.12
44512.00,-86.02
44520.00,-83.11
44528.00,-80.31
44536.01,-77.59
44544.01,-75.06
44552.00,-72.56
44560.01,-70.31
44568.00,-68.09
44576.00,-65.86
44584.00,-63.92
44592.01,-61.97
44600.00,-60.31
44608.00,-59.23
44616.00,-57.36
44624.00,-54.83
44632.00,-53.13
44640.00,-51.98
44648.01,-50.41
44656.01,-49.06
44664.00,-47.91
44672.01,-46.88
44680.00,-46.08
44688.01,-44.50
44696.01,-42.89
44704.01,-42.27
44712.00,-41.27
44720.01,-40.08
44728.00,-39.69
44736.01,-39.13
44744.00,-37.78
44752.01,-36.58
44760.00,-36.16
44768.00,-35.39
44776.00,-34.52
44784.00,-34.02
44792.00,-33.25
44800.01,-32.59
44808.01,-32.08
44816.01,-31.45
44824.00,-30.89
44832.00,-30.34
44840.00,-29.75
44848.00,-29.23
44856.01,-28.67
44864.00,-28.20
44872.00,-27.69
44880.00,-27.23
44888.00,-26.73
44896.00,-26.25
44904.00,-25.80
44912.01,-25.64
44920.00,-25.48
44928.01,-24.87
44936.00,-24.25
44944.01,-23.70
44952.01,-22.78
44960.00,-22.50
44968.00,-22.25
44976.01,-21.55
44984.00,-21.30
44992.00,-20.89
45000.00,-20.59
45008.00,-20.61
45016.00,-19.67
45024.00,-19.02
45032.00,-19.34
45040.01,-18.70
45048.00,-18.16
45056.00,-18.17
45064.00,-16.98
45072.01,-16.52
45080.00,-16.22
45088.01,-15.27
45096.01,-15.77
45104.00,-15.44
45112.00,-13.62
45120.01,-13.26
45128.01,-13.49
45136.00,-13.35
45144.00,-13.13
45152.01,-12.13
45160.00,-11.21
45168.01,-11.38
45176.01,-11.23
45184.01,-10.37
45192.00,-9.91
45200.01,-9.53
45208.01,-8.88
45216.00,-8.41
45224.01,-7.94
45232.01,-7.38
45240.00,-6.90
45248.00,-6.38
45256.01,-5.59
45264.00,-4.45
45272.00,-3.80
45280.01,-3.63
45288.00,-3.13
45296.00,-2.61
45304.00,-2.29
45312.01,-1.80
45320.00,-1.35
45328.01,-0.93
45336.01,1.47
45344.00,36.70
45352.00,130.20
45360.00,211.57
45368.01,274.00
45376.00,446.39
45384.00,645.23
45392.01,716.56
45400.00,738.30
45408.01,706.17
45416.01,645.63
45424.01,659.78
45432.00,620.91
45440.00,535.75
45448.01,508.11
45456.01,459.78
45464.01,403.16
45472.00,370.41
45480.00,323.78
45488.01,281.63
45496.00,246.92
45504.01,206.80
45512.00,171.77
45520.00,138.73
45528.00,104.84
45536.01,74.66
45544.00,45.66
45552.00,16.78
45560.01,-10.81
45568.01,-36.38
45576.00,-59.78
45584.00,-82.73
45592.01,-105.11
45600.00,-125.56
45608.00,-145.11
45616.01,-163.66
45624.00,-180.77
45632.00,-197.03
45640.01,-212.22
45648.00,-226.38
45656.00,-239.56
45664.01,-251.81
45672.01,-263.03
45680.01,-273.56
45688.00,-283.00
45696.00,-291.59
45704.00,-299.38
45712.01,-306.53
45720.00,-312.75
45728.01,-318.28
45736.01,-323.03
45744.01,-327.16
45752.00,-330.53
45760.00,-333.31
45768.00,-335.47
45776.00,-337.06
45784.00,-338.03
45792.00,-338.56
45800.01,-338.28
45808.01,-337.78
45816.01,-336.53
45824.01,-334.97
45832.00,-332.84
45840.01,-330.41
45848.00,-327.47
45856.01,-324.19
45864.00,-320.53
45872.00,-316.56
45880.01,-312.16
45888.01,-307.41
45896.00,-302.41
45904.00,-297.06
45912.00,-291.47
45920.00,-285.69
45928.01,-279.63
45936.01,-273.31
45944.00,-266.75
45952.01,-260.00
45960.00,-253.16
45968.01,-246.03
45976.00,-238.81
45984.00,-231.44
45992.00,-223.88
46000.00,-216.31
46008.01,-208.47
46016.00,-200.78
46024.00,-192.91
46032.00,-184.84
46040.00,-176.84
46048.00,-168.77
46056.00,-160.63
46064.00,-152.42
46072.00,-144.69
46080.01,-137.08
46088.01,-129.03
46096.00,-120.69
46104.00,-112.31
46112.01,-104.23
46120.01,-96.02
46128.00,-125.17
46136.01,-229.03
46144.00,-354.42
46152.01,-458.11
46160.01,-556.80
46168.00,-640.25
46176.00,-652.38
46184.00,-558.47
46192.00,-422.74
46200.00,-346.45
46208.01,-360.99
46216.01,-387.78
46224.01,-347.95
46232.01,-269.79
46240.00,-168.17
46248.00,1.88
46256.01,170.10
46264.00,236.65
46272.00,256.29
46280.00,232.16
46288.01,165.58
46296.00,144.54
46304.00,121.68
46312.00,65.54
46320.00,29.43
46328.00,-2.39
46336.01,-26.11
46344.01,-1.75
46352.00,53.02
46360.00,77.37
46368.00,55.47
46376.00,3.16
46384.00,-80.66
46392.00,-143.94
46400.01,-142.70
46408.01,-106.64
46416.01,-46.06
46424.00,9.50
46432.01,12.16
46440.00,20.62
46448.00,78.53
46456.00,189.19
46464.01,328.84
46472.01,276.44
46480.01,110.75
46488.00,159.94
46496.00,235.69
46504.00,207.13
46512.00,246.03
46520.01,278.03
46528.00,276.94
46536.01,307.38
46544.00,323.03
46552.01,332.63
46560.01,353.34
46568.00,364.03
46576.00,375.69
46584.00,389.25
46592.01,397.94
46600.01,407.75
46608.01,416.69
46616.00,423.19
46624.01,430.88
46632.00,437.50
46640.01,442.06
46648.01,446.44
46656.01,450.06
46664.01,452.81
46672.00,455.13
46680.00,456.50
46688.01,457.44
46696.00,457.44
46704.00,456.88
46712.00,455.88
46720.01,454.25
46728.00,452.13
46736.00,449.44
46744.00,446.19
46752.00,442.13
46760.01,437.50
46768.01,433.50
46776.00,428.88
46784.01,422.94
46792.01,417.25
46800.00,411.31
46808.00,404.31
46816.00,396.75
46824.00,389.69
46832.01,383.00
46840.01,375.44
46848.00,366.94
46856.01,358.94
46864.00,350.50
46872.00,341.56
46880.00,332.38
46888.01,322.81
46896.01,313.44
46904.00,305.00
46912.00,295.69
46920.01,285.50
46928.00,276.00
46936.00,266.03
46944.00,255.94
46952.00,245.97
46960.00,235.78
46968.00,225.63
46976.00,215.41
46984.01,205.13
46992.01,194.81
47000.00,184.63
47008.01,174.22
47016.00,164.00
47024.00,153.75
47032.01,143.50
47040.00,133.94
47048.00,131.59
47056.00,140.72
47064.00,151.78
47072.00,185.34
47080.01,255.25
47088.01,302.25
47096.00,325.97
47104.01,360.75
47112.01,368.69
47120.01,348.09
47128.00,315.36
47136.00,280.78
47144.00,264.69
47152.00,238.56
47160.01,210.58
47168.00,193.02
47176.01,144.70
47184.00,109.89
47192.00,109.10
47200.01,85.78
47208.01,53.71
47216.01,18.23
47224.00,-29.07
47232.00,-84.19
47240.01,-136.35
47248.00,-116.91
47256.01,-59.91
47264.00,-58.89
47272.01,-76.64
47280.01,-91.19
47288.00,-128.16
47296.00,-160.45
47304.01,-169.02
47312.01,-98.88
47320.01,21.67
47328.01,-147.56
47336.01,-618.47
47344.01,-745.58
47352.00,-316.02
47360.01,96.94
47368.00,-41.45
47376.01,-418.23
47384.01,-410.52
47392.01,-318.91
47400.01,-408.48
47408.00,-392.84
47416.01,-366.97
47424.01,-382.09
47432.01,-343.22
47440.01,-342.25
47448.00,-354.25
47456.00,-348.09
47464.01,-366.81
47472.00,-382.53
47480.01,-384.13
47488.01,-395.59
47496.01,-419.97
47504.00,-436.91
47512.00,-436.13
47520.00,-421.28
47528.00,-378.31
47536.01,-328.50
47544.00,-309.69
47552.00,-305.53
47560.01,-291.53
47568.00,-280.84
47576.01,-301.88
47584.00,-337.97
47592.00,-375.31
47600.00,-432.84
47608.01,-468.28
47616.01,-485.59
47624.00,-539.03
47632.00,-562.41
47640.00,-541.78
47648.00,-538.84
47656.00,-517.88
47664.00,-469.91
47672.01,-434.97
47680.01,-413.03
47688.01,-398.13
47696.01,-388.56
47704.01,-377.41
47712.00,-325.47
47720.00,-229.66
47728.00,-164.63
47736.00,-151.53
47744.01,-157.50
47752.01,-161.13
47760.01,-157.88
47768.01,-154.78
47776.00,-76.44
47784.00,96.62
47792.01,50.81
47800.00,-340.56
47808.01,-533.66
47816.00,-92.75
47824.01,540.97
47832.01,528.34
47840.01,82.87
47848.01,43.41
47856.00,129.25
47864.01,18.03
47872.01,16.50
47880.00,6.19
47888.00,-75.87
47896.01,-102.56
47904.00,-149.25
47912.00,-186.75
47920.01,-183.38
47928.00,-199.44
47936.01,-210.44
47944.00,-203.19
47952.00,-202.25
47960.00,-203.88
47968.00,-198.84
47976.00,-170.28
47984.01,-114.41
47992.00,-53.03
48000.01,0.03
48008.00,42.11
48016.00,73.20
48024.00,97.05
48032.00,105.41
48040.01,99.20
48048.00,95.41
48056.00,89.87
48064.00,74.39
48072.01,53.03
48080.00,38.41
48088.01,19.80
48096.00,-0.30
48104.01,20.73
48112.01,43.20
48120.01,32.56
48128.01,52.84
48136.00,103.36
48144.01,162.61
48152.01,260.23
48160.00,365.30
48168.00,416.29
48176.00,401.23
48184.00,341.03
48192.00,287.19
48200.00,283.05
48208.00,281.42
48216.00,236.05
48224.00,197.06
48232.00,181.38
48240.01,143.69
48248.00,97.98
48256.01,72.16
48264.00,87.65
48272.00,160.03
48280.00,40.21
48288.00,-451.13
48296.00,-734.16
48304.00,-244.26
48312.01,378.18
48320.00,302.92
48328.00,-29.78
48336.00,-42.50
48344.01,-25.20
48352.00,-94.96
48360.00,-95.91
48368.01,-107.34
48376.00,-142.80
48384.01,-168.63
48392.00,-200.29
48400.00,-204.06
48408.00,-190.36
48416.00,-191.00
48424.00,-186.51
48432.01,-182.41
48440.00,-192.22
48448.01,-197.73
48456.00,-183.32
48464.00,-154.69
48472.00,-138.19
48480.00,-121.29
48488.01,-85.76
48496.00,-59.72
48504.00,-19.63
48512.01,29.33
48520.01,38.23
48528.01,29.81
48536.01,22.22
48544.00,31.25
48552.01,53.35
48560.01,47.37
48568.01,35.48
48576.01,29.28
48584.00,8.32
48592.01,-15.58
48600.00,-26.64
48608.00,-23.47
48616.01,-12.41
48624.00,3.14
48632.00,36.59
48640.01,100.62
48648.01,147.88
48656.01,137.90
48664.00,108.10
48672.00,51.53
48680.00,-24.17
48688.00,-43.83
48696.01,-17.20
48704.00,7.19
48712.01,5.27
48720.00,-8.47
48728.01,-6.20
48736.01,-28.72
48744.01,-64.53
48752.01,-48.08
48760.01,42.75
48768.01,114.70
48776.00,-19.03
48784.01,-185.11
48792.01,-94.89
48800.00,131.97
48808.00,312.39
48816.01,221.95
48824.00,-59.34
48832.01,-79.77
48840.00,4.59
48848.00,-40.14
48856.00,-15.94
48864.01,24.41
48872.01,16.94
48880.01,44.36
48888.00,62.41
48896.00,68.31
48904.01,89.03
48912.01,100.22
48920.00,110.47
48928.01,125.12
48936.00,134.66
48944.01,144.50
48952.00,166.56
48960.01,205.31
48968.00,232.78
48976.01,250.16
48984.00,291.19
48992.01,322.94
49000.01,333.03
49008.00,354.31
49016.01,362.47
49024.01,350.88
49032.01,350.50
49040.01,362.63
49048.00,378.72
49056.00,386.44
49064.01,373.81
49072.00,361.25
49080.00,365.28
49088.01,360.59
49096.00,336.78
49104.01,328.44
49112.01,334.47
49120.01,322.19
49128.00,300.06
49136.00,275.38
49144.00,239.44
49152.01,224.97
49160.00,270.72
49168.01,332.47
49176.00,338.44
49184.01,312.38
49192.01,299.34
49200.00,298.13
49208.01,307.84
49216.01,318.47
49224.00,363.81
49232.00,475.41
49240.01,427.56
49248.01,15.17
49256.01,-358.73
49264.00,-65.17
49272.01,593.39
49280.01,593.58
49288.01,124.08
49296.00,93.50
49304.01,208.63
49312.00,142.95
49320.00,158.89
49328.00,154.42
49336.01,92.55
49344.01,59.71
49352.01,-14.27
49360.01,-86.33
49368.00,-130.48
49376.00,-185.91
49384.00,-230.59
49392.00,-261.51
49400.00,-291.41
49408.01,-323.95
49416.00,-340.78
49424.01,-329.55
49432.00,-308.39
49440.00,-259.87
49448.00,-210.42
49456.00,-208.08
49464.01,-193.66
49472.00,-145.76
49480.01,-116.43
49488.01,-96.52
49496.00,-71.04
49504.01,-31.94
49512.01,68.07
49520.01,238.71
49528.01,394.48
49536.01,416.12
49544.00,345.20
49552.01,310.05
49560.00,284.98
49568.00,238.91
49576.01,208.78
49584.00,167.12
49592.00,87.19
49600.00,-54.10
49608.00,-279.69
49616.01,-488.16
49624.01,-522.23
49632.00,-387.88
49640.01,-324.41
49648.00,-421.75
49656.01,-425.61
49664.01,-317.59
49672.01,-326.14
49680.01,-437.03
49688.01,-435.52
49696.01,-213.30
49704.01,-188.77
49712.00,-620.59
49720.00,-689.63
49728.00,-33.94
49736.01,350.25
49744.01,78.91
49752.00,-190.91
49760.00,-188.97
49768.01,-93.81
49776.00,-45.02
49784.01,-49.97
49792.01,-20.39
49800.01,-7.22
49808.00,-149.88
49816.00,-303.98
49824.01,-245.56
49832.00,-92.31
49840.01,32.16
49848.00,111.00
49856.00,78.09
49864.00,34.66
49872.01,40.81
49880.00,15.97
49888.01,-18.31
49896.00,-62.19
49904.01,-121.91
49912.01,-156.84
49920.01,-196.47
49928.01,-263.31
49936.00,-337.31
49944.00,-369.03
49952.00,-318.69
49960.01,-231.97
49968.01,-168.19
49976.01,-140.94
49984.00,-94.75
49992.00,-19.94
50000.01,-17.56
50008.00,-57.41
50016.00,-73.19
50024.00,-140.38
50032.00,-223.06
50040.01,-267.88
50048.00,-364.34
50056.01,-493.53
50064.01,-592.53
50072.01,-654.53
50080.00,-632.38
50088.01,-583.06
50096.00,-579.31
50104.01,-558.63
50112.01,-528.97
50120.01,-524.72
50128.00,-499.28
50136.00,-460.44
50144.00,-375.34
50152.01,-216.91
50160.01,-271.16
50168.00,-591.50
50176.01,-636.64
50184.00,-277.81
50192.00,53.44
50200.01,-8.86
50208.00,-308.16
50216.00,-264.53
50224.01,-59.42
50232.01,-25.48
50240.00,116.45
50248.01,250.55
50256.01,226.09
50264.00,223.71
50272.01,201.85
50280.00,123.16
50288.01,58.31
50296.00,50.46
50304.01,204.85
50312.00,453.33
50320.00,568.76
50328.01,556.91
50336.00,518.87
50344.01,418.72
50352.01,251.13
50360.00,100.18
50368.00,29.77
50376.00,71.86
50384.00,175.60
50392.00,239.72
50400.00,243.47
50408.00,198.50
50416.01,158.26
50424.01,140.61
50432.00,58.70
50440.01,-45.75
50448.00,-96.77
50456.01,-167.26
50464.00,-249.02
50472.00,-273.36
50480.01,-266.65
50488.00,-204.52
50496.00,-103.30
50504.00,-70.58
50512.01,-108.66
50520.00,-168.52
50528.00,-187.09
50536.01,-133.00
50544.00,-66.64
50552.01,-11.33
50560.00,18.83
50568.00,-8.03
50576.00,-41.58
50584.00,-23.97
50592.00,10.17
50600.01,24.14
50608.01,41.80
50616.01,64.52
50624.00,78.42
50632.01,94.92
50640.00,112.41
50648.01,126.06
50656.00,140.17
50664.01,153.41
50672.00,165.41
50680.00,177.16
50688.01,187.81
50696.00,197.84
50704.00,207.38
50712.00,215.75
50720.00,223.50
50728.01,230.19
50736.00,236.69
50744.00,243.13
50752.00,248.59
50760.01,253.50
50768.01,257.94
50776.01,261.81
50784.00,265.06
50792.01,268.06
50800.00,270.19
50808.01,272.00
50816.01,273.63
50824.00,274.34
50832.01,274.91
50840.00,275.06
50848.00,274.72
50856.01,274.13
50864.01,273.03
50872.00,271.66
50880.01,270.03
50888.00,267.91
50896.01,265.63
50904.01,263.00
50912.01,260.06
50920.00,256.91
50928.01,253.41
50936.01,249.69
50944.01,245.81
50952.00,241.69
50960.01,237.31
50968.01,232.75
50976.00,227.97
50984.01,223.09
50992.01,218.09
51000.00,212.81
51008.00,207.44
51016.00,201.97
51024.01,196.44
51032.00,190.72
51040.00,184.81
51048.00,179.13
51056.00,173.53
51064.00,166.97
51072.01,160.38
51080.00,154.53
51088.01,148.25
51096.00,141.84
51104.01,135.69
51112.00,129.20
51120.00,122.80
51128.00,116.52
51136.00,110.09
51144.00,103.70
51152.00,97.34
51160.00,90.98
51168.01,84.58
51176.00,78.25
51184.00,72.00
51192.00,65.72
51200.01,59.52
51208.00,53.34
51216.00,47.25
51224.00,41.17
51232.00,35.19
51240.01,29.28
51248.01,23.37
51256.01,17.61
51264.00,11.89
51272.01,6.24
51280.01,0.71
51288.00,-4.79
51296.00,-10.14
51304.01,-15.41
51312.01,-20.63
51320.00,-25.72
51328.00,-30.70
51336.00,-35.62
51344.01,-40.40
51352.01,-45.06
51360.00,-49.62
51368.00,-54.06
51376.01,-58.44
51384.00,-62.38
51392.00,-66.14
51400.01,-70.34
51408.00,-74.39
51416.00,-78.28
51424.00,-82.41
51432.00,-85.75
51440.01,-89.02
51448.01,-92.54
51456.01,-95.56
51464.00,-98.60
51472.01,-101.62
51480.00,-104.33
51488.01,-107.05
51496.01,-109.64
51504.00,-112.02
51512.01,-114.09
51520.00,-14.63
51528.01,290.40
51536.00,519.90
51544.00,485.41
51552.00,527.44
51560.01,615.53
51568.00,486.44
51576.00,333.38
51584.00,163.92
51592.01,-98.84
51600.00,-220.55
51608.01,-200.22
51616.01,-178.61
51624.00,-135.73
51632.00,-83.59
51640.01,-73.64
51648.00,-148.19
51656.00,-269.67
51664.00,-381.08
51672.00,-510.91
51680.00,-568.28
51688.00,-517.86
51696.01,-501.94
51704.01,-503.38
51712.01,-474.06
51720.00,-463.34
51728.00,-452.69
51736.01,-432.38
51744.00,-421.72
51752.00,-407.78
51760.00,-392.34
51768.00,-371.13
51776.00,-312.28
51784.00,-215.47
51792.00,-126.12
51800.00,-77.94
51808.01,-59.63
51816.01,-41.81
51824.01,-41.53
51832.01,-101.47
51840.00,-145.84
51848.00,-93.78
51856.01,-49.44
51864.00,-68.53
51872.01,-78.06
51880.01,-77.47
51888.01,-86.91
51896.01,-94.94
51904.01,-71.72
51912.00,79.16
51920.00,331.03
51928.01,342.47
51936.00,-78.22
51944.00,-257.00
51952.01,311.50
51960.00,629.63
51968.01,325.91
51976.01,313.38
51984.01,387.19
51992.00,238.91
52000.00,246.03
52008.00,236.78
52016.00,159.06
52024.00,159.34
52032.00,126.59
52040.00,86.28
52048.00,73.44
52056.00,42.22
52064.01,17.31
52072.01,-0.66
52080.00,-25.62
52088.00,-44.84
52096.01,-62.88
52104.01,-82.50
52112.01,-98.44
52120.01,-114.34
52128.01,-129.69
52136.00,-143.22
52144.01,-156.34
52152.01,-168.59
52160.00,-179.69
52168.00,-190.06
52176.01,-199.56
52184.01,-208.72
52192.01,-231.59
52200.00,-299.97
52208.01,-398.25
52216.00,-463.84
52224.01,-497.28
52232.00,-536.97
52240.00,-576.94
52248.01,-587.22
52256.00,-582.41
52264.00,-596.75
52272.01,-545.56
52280.01,-421.25
52288.00,-417.53
52296.01,-524.88
52304.00,-566.19
52312.00,-558.31
52320.01,-546.28
52328.01,-504.44
52336.00,-444.22
52344.01,-338.66
52352.00,-310.34
52360.00,-579.63
52368.01,-827.47
52376.00,-497.56
52384.01,136.41
52392.00,226.41
52400.01,-106.91
52408.01,-66.45
52416.00,117.02
52424.01,13.05
52432.00,-64.44
52440.01,-25.77
52448.00,-49.02
52456.00,-159.55
52464.01,-338.38
52472.01,-484.45
52480.01,-519.75
52488.01,-498.45
52496.00,-453.98
52504.01,-402.50
52512.01,-366.01
52520.01,-325.40
52528.00,-283.59
52536.01,-249.09
52544.00,-210.96
52552.01,-175.11
52560.00,-143.45
52568.01,-110.36
52576.01,-78.33
52584.01,-48.10
52592.01,-18.73
52600.00,8.85
52608.01,35.34
52616.00,61.07
52624.00,85.27
52632.00,108.46
52640.01,130.93
52648.01,151.94
52656.00,171.81
52664.00,190.69
52672.00,209.28
52680.01,226.78
52688.01,242.11
52696.00,257.38
52704.01,272.48
52712.01,286.06
52720.01,299.56
52728.00,311.84
52736.01,322.63
52744.00,332.88
52752.00,341.94
52760.00,350.81
52768.00,360.06
52776.00,367.59
52784.01,373.47
52792.01,379.22
52800.00,384.78
52808.00,390.31
52816.01,394.41
52824.00,396.84
52832.00,399.97
52840.00,402.69
52848.00,404.50
52856.00,406.06
52864.01,407.38
52872.00,407.19
52880.01,406.59
52888.01,406.44
52896.01,405.53
52904.01,403.78
52912.01,402.16
52920.00,399.75
52928.00,397.09
52936.00,394.16
52944.00,390.78
52952.00,387.03
52960.01,383.00
52968.00,378.63
52976.00,374.00
52984.01,369.03
52992.01,363.78
53000.00,358.34
53008.00,352.59
53016.00,346.66
53024.00,340.50
53032.00,334.09
53040.00,327.63
53048.00,320.81
53056.00,313.91
53064.00,306.78
53072.00,299.59
53080.00,292.22
53088.01,284.72
53096.00,277.06
53104.00,269.38
53112.00,261.56
53120.01,253.69
53128.01,245.75
53136.00,237.63
53144.01,229.56
53152.00,221.41
53160.00,213.16
53168.00,204.94
53176.01,196.78
53184.00,188.41
53192.00,180.19
53200.01,171.94
53208.00,163.63
53216.01,155.66
53224.01,147.75
53232.00,139.41
53240.01,131.03
53248.01,123.06
53256.01,114.84
53264.01,106.72
53272.00,98.84
53280.01,90.53
53288.01,82.25
53296.01,74.78
53304.01,67.41
53312.00,59.97
53320.01,52.06
53328.00,44.19
53336.00,37.13
53344.00,29.95
53352.00,22.62
53360.01,16.03
53368.01,9.42
53376.01,2.09
53384.01,-4.75
53392.00,-10.33
53400.00,-16.67
53408.00,-23.44
53416.01,-29.44
53424.00,-35.53
53432.01,-41.67
53440.00,-47.41
53448.01,-53.14
53456.01,-58.70
53464.00,-64.08
53472.00,-69.41
53480.00,-74.56
53488.01,-79.54
53496.00,-84.41
53504.00,-89.09
53512.00,-93.65
53520.00,-98.06
53528.00,-102.33
53536.00,-106.44
53544.01,-110.41
53552.00,-114.24
53560.00,-117.92
53568.00,-121.44
53576.01,-124.82
53584.00,-128.04
53592.00,-130.57
53600.00,-65.99
53608.00,75.59
53616.01,32.00
53624.00,-192.83
53632.01,-198.95
53640.00,33.94
53648.01,227.54
53656.01,110.39
53664.01,-166.66
53672.01,-123.57
53680.01,-20.35
53688.00,-106.94
53696.01,-85.58
53704.01,-43.70
53712.01,-76.66
53720.00,-72.00
53728.00,-89.64
53736.01,-119.78
53744.01,-119.69
53752.00,-137.77
53760.01,-167.86
53768.00,-173.86
53776.01,-156.22
53784.00,-142.48
53792.00,-132.36
53800.00,-101.30
53808.01,-75.17
53816.01,-61.97
53824.00,-35.08
53832.00,-9.83
53840.00,14.98
53848.01,44.47
53856.00,50.31
53864.01,37.06
53872.01,19.78
53880.00,0.69
53888.01,-18.37
53896.00,-34.13
53904.01,-31.37
53912.00,-26.56
53920.00,-44.22
53928.01,-61.69
53936.01,-88.41
53944.01,-144.88
53952.00,-158.47
53960.00,-117.41
53968.01,-117.75
53976.00,-149.72
53984.00,-170.16
53992.01,-204.16
54000.00,-244.81
54008.01,-260.22
54016.01,-174.66
54024.01,47.84
54032.00,154.63
54040.00,-203.78
54048.00,-671.94
54056.01,-388.81
54064.01,261.75
54072.00,241.84
54080.00,3.19
54088.01,64.34
54096.00,-9.88
54104.00,-102.75
54112.00,-62.81
54120.01,-127.31
54128.00,-152.13
54136.00,-64.97
54144.01,-30.00
54152.00,-52.66
54160.01,-79.03
54168.00,-93.59
54176.00,-107.97
54184.00,-126.94
54192.00,-139.66
54200.00,-152.75
54208.00,-166.72
54216.01,-177.25
54224.01,-188.31
54232.00,-198.53
54240.01,-207.13
54248.00,-215.66
54256.00,-223.03
54264.00,-236.72
54272.01,-273.56
54280.01,-334.09
54288.01,-392.13
54296.01,-436.88
54304.01,-482.69
54312.01,-524.16
54320.01,-554.34
54328.00,-583.94
54336.00,-581.31
54344.00,-527.47
54352.01,-478.47
54360.00,-471.06
54368.00,-502.97
54376.00,-535.25
54384.01,-502.16
54392.01,-434.66
54400.01,-407.59
54408.01,-420.69
54416.01,-435.56
54424.00,-436.75
54432.00,-437.69
54440.00,-415.25
54448.01,-296.53
54456.01,-163.03
54464.00,-355.69
54472.00,-752.88
54480.01,-647.72
54488.00,-114.78
54496.00,95.17
54504.00,-129.80
54512.00,-330.48
54520.00,-256.75
54528.01,-168.16
54536.01,-204.05
54544.00,-175.80
54552.01,-133.89
54560.01,-137.66
54568.01,-113.52
54576.01,-98.06
54584.01,-98.34
54592.00,-94.62
54600.01,-91.89
54608.01,-77.67
54616.01,-50.10
54624.00,-11.34
54632.00,24.89
54640.01,59.17
54648.00,91.76
54656.00,126.68
54664.01,183.80
54672.01,227.34
54680.01,252.11
54688.00,279.57
54696.01,281.02
54704.00,282.65
54712.01,295.63
54720.00,269.78
54728.01,240.17
54736.01,241.92
54744.00,215.50
54752.00,164.84
54760.01,172.84
54768.00,218.64
54776.00,219.42
54784.01,196.98
54792.00,202.70
54800.00,208.55
54808.01,211.67
54816.00,262.75
54824.01,343.72
54832.01,396.53
54840.01,432.22
54848.01,464.41
54856.00,462.72
54864.01,469.34
54872.00,503.69
54880.00,538.50
54888.01,573.19
54896.00,368.50
54904.00,-28.41
54912.01,-59.41
54920.00,255.59
54928.00,532.13
54936.00,553.09
54944.00,368.38
54952.01,402.66
54960.01,503.25
54968.00,424.41
54976.00,495.63
54984.01,597.69
54992.00,531.91
55000.00,499.28
55008.01,471.97
55016.00,368.91
55024.01,288.38
55032.00,224.50
55040.01,146.69
55048.00,84.34
55056.00,70.62
55064.00,165.84
55072.01,278.59
55080.00,301.28
55088.00,314.88
55096.01,323.41
55104.00,303.50
55112.00,305.75
55120.00,269.31
55128.00,188.41
55136.00,138.22
55144.00,54.69
55152.00,-59.41
55160.00,-106.47
55168.01,-152.53
55176.00,-206.84
55184.00,-178.88
55192.00,-144.53
55200.00,-145.78
55208.01,-124.12
55216.01,-105.53
55224.00,-98.28
55232.00,-80.41
55240.00,-68.12
55248.00,-58.13
55256.01,-44.47
55264.00,-34.59
55272.01,-24.81
55280.00,-14.31
55288.00,-5.84
55296.01,2.78
55304.00,10.94
55312.00,37.78
55320.01,129.56
55328.00,177.63
55336.01,44.88
55344.01,-28.94
55352.00,183.16
55360.00,444.81
55368.01,377.00
55376.00,97.34
55384.01,87.66
55392.00,219.63
55400.01,198.86
55408.00,193.33
55416.00,226.63
55424.01,229.56
55432.00,226.33
55440.01,198.52
55448.00,175.66
55456.01,164.45
55464.01,162.39
55472.01,196.53
55480.01,208.09
55488.00,180.89
55496.01,176.98
55504.00,179.48
55512.00,178.06
55520.01,195.02
55528.00,213.28
55536.00,233.31
55544.00,245.72
55552.00,242.83
55560.00,236.72
55568.00,192.80
55576.00,132.80
55584.00,96.16
55592.01,55.21
55600.00,15.47
55608.00,-16.51
55616.01,-32.67
55624.01,-19.70
55632.01,11.32
55640.00,56.59
55648.00,78.25
55656.01,71.02
55664.00,65.62
55672.00,30.48
55680.01,-9.18
55688.01,13.73
55696.01,34.36
55704.00,-6.36
55712.01,-39.76
55720.01,-46.70
55728.01,-75.24
55736.00,-107.91
55744.00,-102.62
55752.00,-11.83
55760.00,67.40
55768.01,-238.71
55776.00,-762.73
55784.00,-574.73
55792.01,194.44
55800.01,313.39
55808.01,-153.58
55816.01,-307.13
55824.00,-240.05
55832.01,-263.95
55840.00,-289.64
55848.00,-311.64
55856.00,-336.41
55864.01,-343.75
55872.00,-362.11
55880.01,-374.83
55888.01,-347.83
55896.00,-292.14
55904.00,-248.47
55912.00,-246.17
55920.00,-278.78
55928.01,-322.31
55936.00,-354.84
55944.01,-383.98
55952.00,-421.61
55960.00,-437.80
55968.01,-418.25
55976.00,-383.95
55984.01,-347.50
55992.00,-321.44
56000.00,-308.86
56008.01,-300.53
56016.00,-295.08
56024.01,-292.88
56032.01,-304.36
56040.01,-307.77
56048.01,-243.83
56056.01,-119.75
56064.00,51.64
56072.01,263.30
56080.00,398.00
56088.01,409.39
56096.00,369.33
56104.01,280.59
56112.00,178.61
56120.01,122.70
56128.01,77.87
56136.01,39.06
56144.00,-7.45
56152.01,-83.30
56160.00,-127.75
56168.00,-148.53
56176.01,-185.56
56184.00,-206.78
56192.01,-132.47
56200.00,7.28
56208.01,-164.81
56216.01,-654.36
56224.01,-654.09
56232.00,-13.30
56240.00,346.61
56248.01,75.52
56256.00,-190.19
56264.01,-121.41
56272.01,-76.81
56280.01,-132.34
56288.00,-105.62
56296.00,-114.39
56304.00,-158.50
56312.00,-85.20
56320.01,69.97
56328.00,215.44
56336.01,283.23
56344.01,257.34
56352.01,218.23
56360.01,208.53
56368.00,189.03
56376.00,163.83
56384.00,150.67
56392.00,132.13
56400.00,113.89
56408.00,100.31
56416.01,83.95
56424.01,69.56
56432.01,56.55
56440.00,42.92
56448.01,31.03
56456.00,19.53
56464.01,8.30
56472.00,-1.86
56480.01,-18.00
56488.00,-56.41
56496.00,-117.11
56504.00,-169.45
56512.00,-185.97
56520.00,-185.91
56528.00,-196.80
56536.01,-216.31
56544.00,-257.69
56552.00,-316.81
56560.01,-359.67
56568.01,-379.88
56576.01,-360.03
56584.00,-315.70
56592.01,-302.64
56600.00,-269.77
56608.01,-170.64
56616.00,-93.48
56624.01,-68.67
56632.01,-34.00
56640.01,50.94
56648.00,139.83
56656.00,16.27
56664.00,-459.43
56672.01,-705.34
56680.00,-130.42
56688.00,370.74
56696.00,78.12
56704.01,-213.38
56712.00,-212.13
56720.01,-244.96
56728.00,-296.76
56736.01,-377.08
56744.00,-430.53
56752.00,-402.20
56760.01,-383.88
56768.01,-377.63
56776.01,-337.87
56784.01,-236.46
56792.00,-88.58
56800.00,42.82
56808.00,144.84
56816.01,192.77
56824.00,166.68
56832.01,110.11
56840.00,47.22
56848.00,-13.39
56856.00,-70.03
56864.00,-126.00
56872.01,-169.70
56880.00,-218.79
56888.01,-284.12
56896.01,-313.48
56904.00,-278.41
56912.00,-231.30
56920.00,-202.95
56928.01,-169.38
56936.00,-134.11
56944.01,-106.14
56952.00,-75.78
56960.01,-46.67
56968.00,-20.75
56976.01,5.98
56984.01,30.50
56992.00,53.86
57000.00,76.64
57008.00,97.84
57016.00,118.14
57024.01,137.45
57032.00,155.63
57040.00,172.88
57048.00,189.06
57056.01,204.53
57064.01,218.91
57072.00,232.41
57080.00,245.03
57088.01,256.81
57096.00,267.81
57104.01,281.56
57112.01,295.75
57120.01,297.84
57128.01,299.31
57136.00,351.09
57144.01,434.63
57152.00,401.50
57160.01,292.94
57168.01,303.16
57176.01,341.59
57184.01,317.81
57192.00,326.88
57200.00,338.75
57208.00,328.97
57216.01,336.53
57224.00,338.25
57232.01,334.81
57240.01,338.22
57248.00,336.69
57256.00,335.13
57264.00,335.13
57272.01,332.69
57280.01,330.63
57288.01,328.47
57296.00,325.25
57304.00,322.53
57312.00,325.97
57320.00,358.88
57328.00,426.13
57336.00,474.97
57344.01,485.47
57352.01,492.03
57360.00,489.75
57368.00,468.38
57376.00,444.94
57384.00,416.34
57392.01,383.97
57400.01,372.09
57408.00,376.84
57416.01,371.31
57424.01,376.44
57432.00,399.34
57440.00,385.97
57448.01,345.34
57456.00,315.88
57464.01,260.94
57472.01,192.66
57480.01,189.34
57488.01,234.69
57496.00,252.47
57504.01,240.00
57512.00,231.19
57520.00,216.31
57528.01,183.22
57536.00,160.06
57544.01,181.61
57552.01,284.17
57560.00,321.30
57568.00,16.27
57576.00,-337.22
57584.01,-107.00
57592.01,440.02
57600.01,452.44
57608.01,62.89
57616.01,-34.48
57624.01,38.92
57632.00,11.90
57640.00,4.08
57648.01,7.56
57656.00,-4.71
57664.00,-20.40
57672.01,-52.91
57680.00,-67.34
57688.00,-64.95
57696.00,-64.09
57704.00,-70.00
57712.00,-74.03
57720.00,-77.37
57728.01,-106.89
57736.00,-127.52
57744.00,-134.07
57752.00,-167.59
57760.01,-166.68
57768.00,-127.58
57776.01,-129.97
57784.00,-138.38
57792.00,-127.55
57800.00,-144.61
57808.01,-170.95
57816.01,-179.48
57824.01,-203.28
57832.01,-237.00
57840.00,-244.44
57848.01,-248.38
57856.00,-261.39
57864.01,-254.92
57872.01,-241.05
57880.00,-250.70
57888.00,-270.38
57896.00,-291.61
57904.00,-334.97
57912.00,-363.88
57920.00,-333.97
57928.00,-283.03
57936.00,-260.06
57944.00,-269.63
57952.00,-290.47
57960.00,-298.84
57968.01,-286.16
57976.00,-268.03
57984.01,-209.13
57992.00,-55.25
58000.01,-50.16
58008.00,-449.50
58016.01,-795.69
58024.00,-413.47
58032.00,296.53
58040.00,260.03
58048.00,-221.66
58056.00,-209.78
58064.00,-106.25
58072.00,-203.44
58080.00,-176.22
58088.00,-176.69
58096.00,-194.63
58104.00,-101.66
58112.01,-18.97
58120.01,88.22
58128.00,177.13
58136.00,136.13
58144.01,89.91
58152.00,88.22
58160.01,59.06
58168.00,33.50
58176.00,21.44
58184.01,-2.34
58192.01,-20.22
58200.00,-34.69
58208.01,-53.19
58216.01,-67.31
58224.00,-81.22
58232.01,-95.59
58240.01,-107.16
58248.00,-118.28
58256.00,-129.41
58264.01,-139.66
58272.00,-149.25
58280.01,-157.97
58288.00,-165.94
58296.00,-173.41
58304.00,-180.06
58312.01,-186.19
58320.00,-191.72
58328.00,-196.44
58336.00,-200.84
58344.00,-204.22
58352.00,-206.91
58360.00,-209.41
58368.01,-211.84
58376.00,-213.59
58384.01,-214.88
58392.00,-215.72
58400.00,-216.00
58408.00,-215.94
58416.00,-215.69
58424.01,-214.72
58432.00,-213.81
58440.01,-212.22
58448.00,-210.34
58456.00,-208.28
58464.01,-205.75
58472.00,-203.00
58480.00,-199.97
58488.01,-196.69
58496.01,-193.09
58504.00,-189.41
58512.01,-185.44
58520.00,-181.16
58528.00,-176.88
58536.00,-172.28
58544.01,-167.53
58552.00,-162.63
58560.01,-157.63
58568.00,-152.41
58576.00,-147.19
58584.00,-141.44
58592.00,-136.00
58600.00,-130.56
58608.01,-124.80
58616.00,-119.05
58624.01,-113.20
58632.00,-107.28
58640.00,-101.41
58648.00,-95.44
58656.01,-89.41
58664.00,-83.31
58672.00,-77.16
58680.00,-71.19
58688.00,-65.16
58696.00,-59.09
58704.00,-53.19
58712.00,-47.03
58720.00,-41.08
58728.00,-35.19
58736.00,-29.28
58744.01,-23.34
58752.01,-17.63
58760.00,-11.88
58768.00,-5.98
58776.01,-0.44
58784.01,5.23
58792.01,10.68
58800.00,16.15
58808.01,21.50
58816.00,26.73
58824.01,31.85
58832.01,37.11
58840.01,41.99
58848.01,47.00
58856.00,51.64
58864.01,56.41
58872.01,61.17
58880.00,65.44
58888.00,69.70
58896.00,74.22
58904.00,78.11
58912.00,81.25
58920.01,85.15
58928.00,89.18
58936.01,92.82
58944.00,96.60
58952.00,100.11
58960.01,103.35
58968.01,106.61
58976.01,109.87
58984.01,112.85
58992.00,115.73
59000.01,118.47
59008.01,120.96
59016.00,123.71
59024.00,125.92
59032.00,128.30
59040.00,130.28
59048.01,132.44
59056.01,134.05
59064.00,135.94
59072.00,137.42
59080.00,139.08
59088.01,140.50
59096.00,141.78
59104.00,142.72
59112.01,143.80
59120.00,144.75
59128.00,145.70
59136.01,146.22
59144.00,146.84
59152.01,147.36
59160.00,147.69
59168.00,147.50
59176.00,147.41
59184.00,147.67
59192.01,147.48
59200.00,146.70
59208.01,146.83
59216.00,146.73
59224.00,145.81
59232.01,145.58
59240.01,145.00
59248.01,144.45
59256.01,143.73
59264.01,142.78
59272.01,141.75
59280.01,140.92
59288.01,26.28
59296.00,-404.38
59304.00,-637.73
59312.00,-25.56
59320.00,442.45
59328.00,107.73
59336.01,-100.20
59344.00,-110.56
59352.00,-274.81
59360.00,-427.50
59368.01,-557.41
59376.00,-493.19
59384.01,-246.66
59392.01,-77.56
59400.01,28.78
59408.01,90.94
59416.00,103.56
59424.00,72.97
59432.01,-30.72
59440.01,-152.34
59448.00,-271.38
59456.00,-363.28
59464.00,-341.88
59472.00,-272.63
59480.00,-244.41
59488.00,-209.66
59496.01,-164.31
59504.01,-135.78
59512.00,-101.37
59520.01,-67.19
59528.01,-39.63
59536.00,-9.56
59544.01,18.09
59552.01,43.19
59560.00,68.72
59568.01,91.78
59576.00,113.53
59584.01,134.84
59592.00,154.09
59600.01,172.50
59608.01,190.06
59616.00,205.88
59624.00,221.09
59632.01,234.97
59640.01,247.94
59648.01,260.06
59656.01,270.84
59664.01,281.03
59672.01,289.97
59680.00,298.28
59688.00,305.56
59696.00,312.03
59704.01,317.91
59712.01,322.56
59720.01,326.34
59728.00,347.63
59736.01,466.47
59744.00,605.13
59752.00,486.66
59760.01,299.06
59768.00,378.34
59776.01,441.69
59784.00,371.31
59792.00,381.38
59800.00,431.53
59808.00,503.09
59816.00,593.38
59824.00,674.78
59832.00,792.81
59840.00,884.56
59848.00,963.06
59856.01,1050.91
59864.01,1004.81
59872.00,896.53
59880.00,863.88
59888.01,812.28
59896.01,740.47
59904.01,700.59
59912.00,646.28
59920.00,591.59
59928.00,549.19
59936.01,497.75
59944.01,391.97
59952.01,131.50
59960.00,-165.63
59968.00,-224.50
59976.01,-131.89
59984.00,-116.55
59992.00,-82.98
60000.01,28.06
60008.00,33.30
60016.01,-38.28
60024.00,-55.78
60032.01,-142.80
60040.00,-263.32
60048.00,-210.29
60056.00,-85.06
60064.01,-71.27
60072.01,-116.25
60080.00,-94.88
60088.01,-35.85
60096.01,27.77
60104.01,136.43
60112.00,157.00
60120.01,73.84
60128.00,-39.54
60136.01,-458.70
60144.01,-832.39
60152.01,-345.32
60160.01,143.46
60168.01,-367.36
60176.00,-888.70
60184.01,-886.11
60192.00,-886.98
60200.00,-864.36
60208.00,-794.34
60216.00,-787.81
60224.00,-748.83
60232.01,-708.36
60240.00,-689.36
60248.00,-652.70
60256.00,-623.33
60264.00,-598.89
60272.00,-568.06
60280.00,-542.91
60288.01,-517.47
60296.01,-491.11
60304.00,-467.83
60312.00,-443.34
60320.00,-420.33
60328.01,-399.22
60336.00,-376.77
60344.00,-355.89
60352.01,-336.03
60360.00,-316.11
60368.01,-297.09
60376.01,-278.88
60384.00,-261.03
60392.00,-243.91
60400.00,-227.36
60408.00,-211.33
60416.01,-195.95
60424.00,-181.03
60432.00,-166.52
60440.01,-152.83
60448.00,-139.16
60456.00,-125.69
60464.00,-105.03
60472.00,9.28
60480.00,326.83
60488.00,706.00
60496.01,858.42
60504.01,783.47
60512.01,704.47
60520.01,679.67
60528.01,629.53
60536.00,575.03
60544.01,541.03
60552.00,495.25
60560.01,452.41
60568.00,417.27
60576.00,376.67
60584.00,340.64
60592.01,306.61
60600.00,271.78
60608.00,239.91
60616.00,208.81
60624.00,178.63
60632.00,150.45
60640.01,122.84
60648.00,96.53
60656.01,71.48
60664.00,47.55
60672.01,24.28
60680.00,2.22
60688.00,-18.31
